-0.375,-0.375,-0.39,-0.405,-0.375,-0.37,-0.36,-0.375,-0.385,-0.38,-0.37,-0.36,-0.345,-0.345,-0.33,-0.33,-0.315,-0.31,-0.295,-0.285,-0.285,-0.295,-0.28,-0.27,-0.28,-0.28,-0.28,-0.29,-0.29,-0.28,-0.275,-0.28,-0.285,-0.29,-0.29,-0.28,-0.28,-0.285,-0.29,-0.3,-0.295,-0.285,-0.28,-0.285,-0.285,-0.295,-0.285,-0.28,-0.275,-0.28,-0.29,-0.31,-0.305,-0.285,-0.27,-0.27,-0.275,-0.285,-0.285,-0.27,-0.265,-0.265,-0.265,-0.28,-0.265,-0.245,-0.235,-0.235,-0.25,-0.25,-0.245,-0.215,-0.22,-0.245,-0.255,-0.23,-0.205,-0.21,-0.22,-0.23,-0.24,-0.24,-0.245,-0.25,-0.27,-0.285,-0.315,-0.32,-0.32,-0.31,-0.33,-0.34,-0.345,-0.36,-0.365,-0.36,-0.35,-0.355,-0.375,-0.385,-0.375,-0.37,-0.365,-0.365,-0.37,-0.38,-0.36,-0.35,-0.355,-0.355,-0.35,-0.365,-0.35,-0.35,-0.34,-0.355,-0.35,-0.375,-0.365,-0.375,-0.4,-0.43,-0.475,-0.52,-0.52,-0.55,-0.57,-0.54,-0.445,-0.305,-0.14,0.025,0.26,0.51,0.735,0.845,0.875,0.735,0.4,-0.025,-0.335,-0.48,-0.47,-0.415,-0.375,-0.365,-0.385,-0.4,-0.38,-0.39,-0.375,-0.385,-0.395,-0.405,-0.39,-0.38,-0.385,-0.385,-0.395,-0.4,-0.405,-0.4,-0.39,-0.39,-0.395,-0.4,-0.39,-0.385,-0.39,-0.385,-0.41,-0.42,-0.405,-0.41,-0.39,-0.39,-0.39,-0.4,-0.4,-0.39,-0.375,-0.38,-0.395,-0.4,-0.39,-0.4,-0.39,-0.395,-0.41,-0.415,-0.405,-0.385,-0.385,-0.38,-0.4,-0.4,-0.395,-0.39,-0.38,-0.375,-0.395,-0.395,-0.385,-0.38,-0.375,-0.385,-0.39,-0.4,-0.4,-0.385,-0.38,-0.395,-0.39,-0.4,-0.395,-0.385,-0.38,-0.385,-0.395,-0.405,-0.4,-0.39,-0.38,-0.38,-0.385,-0.405,-0.395,-0.4,-0.39,-0.4,-0.405,-0.425,-0.42,-0.405,-0.4
-0.405,-0.405,-0.415,-0.4,-0.39,-0.38,-0.385,-0.395,-0.405,-0.39,-0.37,-0.37,-0.37,-0.385,-0.37,-0.355,-0.345,-0.34,-0.335,-0.34,-0.355,-0.335,-0.325,-0.31,-0.305,-0.305,-0.32,-0.315,-0.31,-0.305,-0.305,-0.33,-0.325,-0.345,-0.325,-0.315,-0.315,-0.305,-0.31,-0.31,-0.3,-0.305,-0.305,-0.315,-0.32,-0.325,-0.315,-0.305,-0.315,-0.325,-0.325,-0.33,-0.315,-0.315,-0.31,-0.33,-0.34,-0.335,-0.33,-0.345,-0.355,-0.365,-0.37,-0.345,-0.34,-0.34,-0.345,-0.36,-0.365,-0.36,-0.36,-0.345,-0.355,-0.365,-0.35,-0.36,-0.35,-0.34,-0.345,-0.355,-0.37,-0.35,-0.35,-0.35,-0.345,-0.35,-0.355,-0.36,-0.345,-0.355,-0.35,-0.36,-0.37,-0.355,-0.355,-0.35,-0.355,-0.36,-0.39,-0.385,-0.36,-0.36,-0.37,-0.37,-0.39,-0.375,-0.37,-0.35,-0.34,-0.345,-0.36,-0.36,-0.35,-0.35,-0.335,-0.36,-0.365,-0.365,-0.36,-0.36,-0.365,-0.375,-0.385,-0.385,-0.365,-0.37,-0.375,-0.37,-0.375,-0.365,-0.355,-0.355,-0.36,-0.365,-0.37,-0.36,-0.35,-0.34,-0.345,-0.34,-0.35,-0.345,-0.35,-0.36,-0.35,-0.36,-0.37,-0.36,-0.36,-0.355,-0.36,-0.375,-0.375,-0.37,-0.35,-0.355,-0.36,-0.365,-0.375,-0.37,-0.365,-0.36,-0.355,-0.36,-0.36,-0.35,-0.34,-0.345,-0.345,-0.355,-0.36,-0.36,-0.365,-0.345,-0.355,-0.35,-0.36,-0.355,-0.36,-0.345,-0.335,-0.33,-0.33,-0.31,-0.305,-0.3,-0.305,-0.295,-0.305,-0.285,-0.275,-0.265,-0.255,-0.255,-0.26,-0.265,-0.255,-0.255,-0.26,-0.28,-0.29,-0.28,-0.27,-0.255,-0.275,-0.29,-0.32,-0.3,-0.295,-0.27,-0.265,-0.27,-0.285,-0.3,-0.31,-0.315,-0.32,-0.35,-0.37,-0.365,-0.365,-0.365,-0.37,-0.37,-0.37,-0.38,-0.36,-0.375,-0.375,-0.4,-0.42,-0.405,-0.4,-0.385,-0.38,-0.4,-0.415,-0.405,-0.395,-0.395,-0.395,-0.41,-0.43,-0.44,-0.455,-0.49,-0.485,-0.52,-0.57,-0.575,-0.525,-0.42,-0.305,-0.19,-0.02,0.22,0.485,0.715,0.845,0.885,0.79,0.56,0.225,-0.07,-0.285,-0.425,-0.5,-0.55,-0.535,-0.5,-0.465,-0.45,-0.45,-0.435,-0.42,-0.41,-0.41,-0.415,-0.42,-0.425,-0.42,-0.43,-0.43,-0.44,-0.45,-0.45,-0.43,-0.43,-0.43,-0.445,-0.445,-0.44,-0.425,-0.43,-0.43,-0.425,-0.445,-0.445,-0.43,-0.435,-0.435,-0.445,-0.445,-0.435,-0.43,-0.425,-0.43,-0.43,-0.44,-0.42,-0.43,-0.425,-0.43,-0.44,-0.44,-0.43,-0.43,-0.415,-0.425,-0.43,-0.455,-0.445,-0.445,-0.43,-0.43,-0.44,-0.44,-0.435,-0.43,-0.415,-0.415,-0.425,-0.425,-0.42,-0.405,-0.405,-0.415,-0.415,-0.425,-0.43,-0.405,-0.405,-0.405,-0.405,-0.43,-0.415,-0.41,-0.415,-0.43,-0.445,-0.465,-0.46,-0.45,-0.455,-0.46,-0.465,-0.485,-0.495
-0.475,-0.49,-0.5,-0.495,-0.515,-0.5,-0.485,-0.49,-0.485,-0.5,-0.5,-0.49,-0.48,-0.46,-0.46,-0.47,-0.465,-0.44,-0.43,-0.425,-0.41,-0.41,-0.4,-0.39,-0.38,-0.355,-0.35,-0.355,-0.35,-0.34,-0.33,-0.325,-0.305,-0.32,-0.315,-0.305,-0.3,-0.305,-0.305,-0.31,-0.33,-0.31,-0.315,-0.315,-0.32,-0.325,-0.325,-0.325,-0.31,-0.31,-0.315,-0.325,-0.33,-0.325,-0.325,-0.315,-0.32,-0.33,-0.335,-0.33,-0.315,-0.32,-0.32,-0.335,-0.335,-0.325,-0.325,-0.32,-0.32,-0.325,-0.35,-0.345,-0.345,-0.335,-0.345,-0.355,-0.355,-0.355,-0.345,-0.335,-0.335,-0.345,-0.355,-0.34,-0.335,-0.33,-0.335,-0.345,-0.35,-0.35,-0.34,-0.335,-0.33,-0.36,-0.355,-0.345,-0.335,-0.345,-0.35,-0.36,-0.38,-0.37,-0.345,-0.345,-0.35,-0.355,-0.365,-0.36,-0.345,-0.345,-0.35,-0.36,-0.36,-0.35,-0.355,-0.34,-0.345,-0.355,-0.355,-0.355,-0.34,-0.34,-0.345,-0.365,-0.37,-0.35,-0.33,-0.32,-0.315,-0.295,-0.305,-0.295,-0.3,-0.285,-0.275,-0.26,-0.275,-0.265,-0.26,-0.25,-0.245,-0.255,-0.265,-0.26,-0.26,-0.25,-0.26,-0.28,-0.28,-0.275,-0.285,-0.28,-0.255,-0.245,-0.245,-0.26,-0.285,-0.29,-0.3,-0.32,-0.335,-0.355,-0.35,-0.355,-0.355,-0.375,-0.385,-0.38,-0.36,-0.35,-0.36,-0.365,-0.37,-0.37,-0.365,-0.36,-0.365,-0.37,-0.385,-0.385,-0.365,-0.36,-0.38,-0.385,-0.395,-0.395,-0.385,-0.38,-0.395,-0.425,-0.465,-0.5,-0.515,-0.53,-0.56,-0.585,-0.53,-0.41,-0.255,-0.105,0.105,0.355,0.6,0.81,0.89,0.83,0.58,0.185,-0.205,-0.45,-0.525,-0.495,-0.465,-0.435,-0.415,-0.415,-0.415,-0.4,-0.395,-0.405,-0.425,-0.435,-0.415,-0.415,-0.415,-0.415,-0.43,-0.42,-0.41,-0.405,-0.42,-0.41,-0.42,-0.4,-0.395,-0.385,-0.4,-0.4,-0.4,-0.4,-0.395,-0.4,-0.4,-0.4,-0.41,-0.395,-0.41,-0.4,-0.395,-0.405,-0.41,-0.415,-0.405,-0.4,-0.395,-0.405,-0.415,-0.405,-0.415,-0.41,-0.405,-0.405,-0.41,-0.405,-0.4,-0.395,-0.405,-0.405,-0.4,-0.395,-0.39,-0.395,-0.39,-0.395,-0.42,-0.415,-0.405,-0.4,-0.4,-0.415,-0.42,-0.41,-0.395,-0.4,-0.405,-0.415,-0.435,-0.415,-0.415,-0.4,-0.405,-0.42,-0.43,-0.425,-0.41,-0.41,-0.405,-0.415,-0.425,-0.425,-0.42,-0.41,-0.41,-0.42
-0.43,-0.425,-0.42,-0.405,-0.415,-0.41,-0.41,-0.385,-0.37,-0.36,-0.35,-0.35,-0.35,-0.335,-0.32,-0.305,-0.315,-0.315,-0.32,-0.305,-0.305,-0.295,-0.29,-0.295,-0.295,-0.285,-0.285,-0.27,-0.28,-0.28,-0.295,-0.28,-0.285,-0.275,-0.285,-0.295,-0.305,-0.295,-0.285,-0.285,-0.29,-0.3,-0.31,-0.295,-0.3,-0.29,-0.285,-0.305,-0.31,-0.3,-0.295,-0.305,-0.3,-0.305,-0.32,-0.32,-0.31,-0.3,-0.31,-0.32,-0.34,-0.33,-0.31,-0.315,-0.325,-0.325,-0.345,-0.33,-0.32,-0.32,-0.335,-0.335,-0.355,-0.34,-0.32,-0.315,-0.33,-0.34,-0.34,-0.35,-0.33,-0.33,-0.34,-0.35,-0.355,-0.345,-0.335,-0.335,-0.34,-0.34,-0.345,-0.335,-0.335,-0.325,-0.325,-0.335,-0.34,-0.34,-0.32,-0.315,-0.32,-0.335,-0.335,-0.32,-0.325,-0.315,-0.32,-0.32,-0.345,-0.335,-0.32,-0.31,-0.32,-0.32,-0.34,-0.33,-0.32,-0.31,-0.31,-0.31,-0.295,-0.28,-0.255,-0.25,-0.25,-0.255,-0.26,-0.24,-0.22,-0.23,-0.23,-0.215,-0.22,-0.225,-0.23,-0.23,-0.235,-0.245,-0.255,-0.24,-0.235,-0.245,-0.235,-0.23,-0.22,-0.195,-0.22,-0.245,-0.26,-0.27,-0.29,-0.3,-0.305,-0.305,-0.32,-0.33,-0.35,-0.35,-0.335,-0.335,-0.335,-0.34,-0.35,-0.35,-0.345,-0.335,-0.345,-0.355,-0.37,-0.35,-0.345,-0.335,-0.335,-0.335,-0.355,-0.355,-0.345,-0.355,-0.395,-0.45,-0.48,-0.505,-0.525,-0.545,-0.5,-0.395,-0.255,-0.07,0.145,0.425,0.685,0.875,0.925,0.795,0.47,0.02,-0.325,-0.47,-0.485,-0.41,-0.365,-0.355,-0.365,-0.38,-0.385,-0.38,-0.37,-0.37,-0.375,-0.385,-0.395,-0.385,-0.38,-0.385,-0.375,-0.39,-0.405,-0.405,-0.39,-0.385,-0.385,-0.39,-0.41,-0.4,-0.39,-0.385,-0.385,-0.395,-0.39,-0.395,-0.38,-0.375,-0.38,-0.385,-0.4,-0.385,-0.38,-0.375,-0.38,-0.395,-0.395,-0.385,-0.375,-0.37,-0.365,-0.385,-0.395,-0.385,-0.385,-0.37,-0.375,-0.37,-0.375,-0.375,-0.37,-0.355,-0.365,-0.38,-0.375,-0.37,-0.38,-0.365,-0.37,-0.375,-0.39,-0.38,-0.375,-0.38,-0.37,-0.375,-0.38,-0.385,-0.385,-0.37,-0.375,-0.375,-0.38,-0.38,-0.38,-0.38,-0.375,-0.39,-0.395,-0.385,-0.385,-0.375,-0.375,-0.385,-0.385,-0.39,-0.37,-0.365
-0.365,-0.375,-0.385,-0.35,-0.345,-0.325,-0.325,-0.33,-0.325,-0.325,-0.315,-0.315,-0.315,-0.3,-0.3,-0.285,-0.27,-0.265,-0.26,-0.275,-0.285,-0.265,-0.255,-0.25,-0.27,-0.28,-0.285,-0.285,-0.28,-0.27,-0.27,-0.27,-0.285,-0.28,-0.275,-0.27,-0.265,-0.275,-0.29,-0.285,-0.285,-0.275,-0.27,-0.28,-0.295,-0.28,-0.27,-0.27,-0.275,-0.285,-0.3,-0.295,-0.29,-0.295,-0.3,-0.29,-0.305,-0.295,-0.29,-0.295,-0.29,-0.31,-0.32,-0.315,-0.315,-0.3,-0.305,-0.315,-0.33,-0.32,-0.305,-0.315,-0.305,-0.315,-0.325,-0.31,-0.295,-0.3,-0.305,-0.31,-0.325,-0.315,-0.315,-0.305,-0.305,-0.325,-0.32,-0.32,-0.31,-0.305,-0.32,-0.32,-0.32,-0.31,-0.305,-0.29,-0.285,-0.29,-0.305,-0.31,-0.3,-0.3,-0.31,-0.315,-0.315,-0.31,-0.295,-0.3,-0.295,-0.315,-0.31,-0.29,-0.265,-0.24,-0.255,-0.24,-0.25,-0.225,-0.225,-0.215,-0.21,-0.2,-0.195,-0.195,-0.18,-0.175,-0.18,-0.205,-0.215,-0.21,-0.21,-0.21,-0.21,-0.215,-0.225,-0.21,-0.18,-0.17,-0.185,-0.24,-0.255,-0.255,-0.27,-0.275,-0.285,-0.3,-0.3,-0.315,-0.305,-0.3,-0.295,-0.3,-0.315,-0.31,-0.31,-0.3,-0.3,-0.305,-0.315,-0.325,-0.32,-0.32,-0.32,-0.325,-0.34,-0.335,-0.325,-0.315,-0.32,-0.345,-0.37,-0.395,-0.425,-0.445,-0.465,-0.51,-0.53,-0.485,-0.37,-0.235,-0.09,0.105,0.375,0.655,0.82,0.865,0.735,0.45,0.06,-0.27,-0.43,-0.46,-0.415,-0.385,-0.365,-0.355,-0.355,-0.345,-0.35,-0.35,-0.36,-0.345,-0.34,-0.34,-0.335,-0.335,-0.355,-0.345,-0.34,-0.335,-0.34,-0.35,-0.365,-0.36,-0.365,-0.35,-0.345,-0.365,-0.36,-0.35,-0.355,-0.35,-0.355,-0.35,-0.36,-0.335,-0.335,-0.33,-0.34,-0.35,-0.35,-0.345,-0.335,-0.345,-0.355,-0.355,-0.37,-0.355,-0.35,-0.345,-0.365,-0.365,-0.37,-0.365,-0.355,-0.345,-0.345,-0.345,-0.34,-0.335,-0.325,-0.335,-0.345,-0.35,-0.35,-0.355,-0.355,-0.36,-0.35,-0.36,-0.365,-0.345,-0.345,-0.33,-0.35,-0.345,-0.355,-0.35,-0.34,-0.335,-0.35,-0.365,-0.38,-0.385,-0.355,-0.36,-0.355,-0.37,-0.385,-0.37,-0.37,-0.35,-0.345,-0.365,-0.365
-0.36,-0.345,-0.33,-0.33,-0.33,-0.335,-0.315,-0.31,-0.285,-0.29,-0.29,-0.3,-0.28,-0.275,-0.26,-0.26,-0.27,-0.265,-0.255,-0.25,-0.245,-0.245,-0.255,-0.265,-0.26,-0.255,-0.24,-0.25,-0.255,-0.275,-0.275,-0.265,-0.27,-0.275,-0.28,-0.29,-0.28,-0.275,-0.27,-0.27,-0.28,-0.29,-0.28,-0.285,-0.275,-0.29,-0.28,-0.29,-0.28,-0.285,-0.275,-0.28,-0.295,-0.305,-0.3,-0.3,-0.305,-0.315,-0.32,-0.31,-0.31,-0.3,-0.31,-0.31,-0.32,-0.325,-0.31,-0.32,-0.31,-0.31,-0.315,-0.325,-0.315,-0.305,-0.315,-0.31,-0.32,-0.325,-0.325,-0.32,-0.305,-0.305,-0.3,-0.315,-0.3,-0.31,-0.315,-0.305,-0.31,-0.32,-0.31,-0.3,-0.295,-0.3,-0.315,-0.325,-0.325,-0.305,-0.31,-0.29,-0.315,-0.325,-0.32,-0.29,-0.28,-0.26,-0.26,-0.265,-0.26,-0.25,-0.23,-0.22,-0.22,-0.235,-0.22,-0.205,-0.205,-0.21,-0.21,-0.23,-0.24,-0.23,-0.225,-0.235,-0.25,-0.265,-0.26,-0.245,-0.215,-0.215,-0.245,-0.28,-0.275,-0.275,-0.295,-0.31,-0.325,-0.34,-0.34,-0.325,-0.315,-0.31,-0.315,-0.33,-0.33,-0.325,-0.325,-0.335,-0.345,-0.35,-0.35,-0.35,-0.345,-0.35,-0.365,-0.36,-0.35,-0.355,-0.345,-0.345,-0.35,-0.365,-0.38,-0.405,-0.425,-0.44,-0.47,-0.52,-0.54,-0.49,-0.39,-0.26,-0.115,0.085,0.36,0.615,0.78,0.835,0.72,0.41,0.03,-0.255,-0.415,-0.47,-0.465,-0.435,-0.395,-0.375,-0.37,-0.375,-0.375,-0.39,-0.4,-0.38,-0.385,-0.385,-0.385,-0.385,-0.37,-0.37,-0.36,-0.38,-0.38,-0.385,-0.37,-0.37,-0.365,-0.375,-0.385,-0.39,-0.39,-0.385,-0.385,-0.395,-0.39,-0.4,-0.405,-0.39,-0.395,-0.39,-0.405,-0.405,-0.4,-0.375,-0.38,-0.39,-0.395,-0.395,-0.39,-0.39,-0.385,-0.405,-0.4,-0.405,-0.395,-0.39,-0.395,-0.39,-0.4,-0.405,-0.405,-0.39,-0.39,-0.395,-0.4,-0.4,-0.395,-0.38,-0.37,-0.38,-0.385,-0.395,-0.39,-0.38,-0.38,-0.385,-0.39,-0.39,-0.4,-0.4,-0.405,-0.415,-0.42,-0.43,-0.43,-0.425,-0.42,-0.43,-0.445,-0.465,-0.455,-0.44,-0.425,-0.435,-0.45,-0.44,-0.445
