Time(s),Signal_MLII,Label
0,-0.145,0
0.003,-0.145,0
0.006,-0.145,0
0.008,-0.145,0
0.011,-0.145,0
0.014,-0.145,0
0.017,-0.145,0
0.019,-0.145,0
0.022,-0.12,0
0.025,-0.135,0
0.028,-0.145,0
0.031,-0.15,0
0.033,-0.16,0
0.036,-0.155,0
0.039,-0.16,0
0.042,-0.175,0
0.044,-0.18,0
0.047,-0.185,0
0.05,-0.17,0
0.053,-0.155,0
0.056,-0.175,0
0.058,-0.18,0
0.061,-0.19,0
0.064,-0.18,0
0.067,-0.155,0
0.069,-0.135,0
0.072,-0.155,0
0.075,-0.19,0
0.078,-0.205,0
0.081,-0.235,0
0.083,-0.225,0
0.086,-0.245,0
0.089,-0.25,0
0.092,-0.26,0
0.094,-0.275,0
0.097,-0.275,0
0.1,-0.275,0
0.103,-0.265,0
0.106,-0.255,0
0.108,-0.265,0
0.111,-0.275,0
0.114,-0.29,0
0.117,-0.29,0
0.119,-0.29,0
0.122,-0.29,0
0.125,-0.285,0
0.128,-0.295,0
0.131,-0.305,0
0.133,-0.285,0
0.136,-0.275,0
0.139,-0.275,0
0.142,-0.28,0
0.144,-0.285,0
0.147,-0.305,0
0.15,-0.29,0
0.153,-0.3,0
0.156,-0.28,0
0.158,-0.29,0
0.161,-0.3,0
0.164,-0.315,0
0.167,-0.32,0
0.169,-0.335,0
0.172,-0.36,0
0.175,-0.385,0
0.178,-0.385,0
0.181,-0.405,0
0.183,-0.455,0
0.186,-0.485,0
0.189,-0.485,0
0.192,-0.425,0
0.194,-0.33,0
0.197,-0.22,0
0.2,-0.07,0
0.203,0.12,0
0.206,0.375,0
0.208,0.62,0
0.211,0.78,0
0.214,0.84,0
0.217,0.765,0
0.219,0.52,0
0.222,0.17,0
0.225,-0.165,0
0.228,-0.365,0
0.231,-0.435,0
0.233,-0.425,0
0.236,-0.37,0
0.239,-0.33,0
0.242,-0.325,0
0.244,-0.335,0
0.247,-0.345,0
0.25,-0.33,0
0.253,-0.325,0
0.256,-0.315,0
0.258,-0.31,0
0.261,-0.32,0
0.264,-0.335,0
0.267,-0.34,0
0.269,-0.325,0
0.272,-0.345,0
0.275,-0.335,0
0.278,-0.33,0
0.281,-0.335,0
0.283,-0.33,0
0.286,-0.325,0
0.289,-0.33,0
0.292,-0.33,0
0.294,-0.345,0
0.297,-0.355,0
0.3,-0.335,0
0.303,-0.325,0
0.306,-0.305,0
0.308,-0.32,0
0.311,-0.32,0
0.314,-0.33,0
0.317,-0.34,0
0.319,-0.335,0
0.322,-0.34,0
0.325,-0.345,0
0.328,-0.355,0
0.331,-0.355,0
0.333,-0.34,0
0.336,-0.33,0
0.339,-0.33,0
0.342,-0.33,0
0.344,-0.34,0
0.347,-0.35,0
0.35,-0.325,0
0.353,-0.325,0
0.356,-0.33,0
0.358,-0.33,0
0.361,-0.335,0
0.364,-0.335,0
0.367,-0.34,0
0.369,-0.33,0
0.372,-0.34,0
0.375,-0.35,0
0.378,-0.355,0
0.381,-0.35,0
0.383,-0.345,0
0.386,-0.33,0
0.389,-0.32,0
0.392,-0.335,0
0.394,-0.33,0
0.397,-0.345,0
0.4,-0.33,0
0.403,-0.335,0
0.406,-0.335,0
0.408,-0.345,0
0.411,-0.345,0
0.414,-0.355,0
0.417,-0.34,0
0.419,-0.34,0
0.422,-0.335,0
0.425,-0.33,0
0.428,-0.35,0
0.431,-0.35,0
0.433,-0.345,0
0.436,-0.335,0
0.439,-0.335,0
0.442,-0.335,0
0.444,-0.35,0
0.447,-0.355,0
0.45,-0.355,0
0.453,-0.345,0
0.456,-0.345,0
0.458,-0.335,0
0.461,-0.35,0
0.464,-0.36,0
0.467,-0.36,0
0.469,-0.36,0
0.472,-0.365,0
0.475,-0.36,0
0.478,-0.37,0
0.481,-0.385,0
0.483,-0.37,0
0.486,-0.36,0
0.489,-0.355,0
0.492,-0.36,0
0.494,-0.375,0
0.497,-0.375,0
0.5,-0.365,0
0.503,-0.365,0
0.506,-0.36,0
0.508,-0.36,0
0.511,-0.365,0
0.514,-0.37,0
0.517,-0.355,0
0.519,-0.33,0
0.522,-0.325,0
0.525,-0.325,0
0.528,-0.335,0
0.531,-0.34,0
0.533,-0.315,0
0.536,-0.3,0
0.539,-0.3,0
0.542,-0.29,0
0.544,-0.295,0
0.547,-0.29,0
0.55,-0.285,0
0.553,-0.275,0
0.556,-0.255,0
0.558,-0.25,0
0.561,-0.25,0
0.564,-0.265,0
0.567,-0.255,0
0.569,-0.245,0
0.572,-0.23,0
0.575,-0.245,0
0.578,-0.245,0
0.581,-0.255,0
0.583,-0.255,0
0.586,-0.24,0
0.589,-0.25,0
0.592,-0.255,0
0.594,-0.245,0
0.597,-0.255,0
0.6,-0.25,0
0.603,-0.25,0
0.606,-0.265,0
0.608,-0.26,0
0.611,-0.26,0
0.614,-0.265,0
0.617,-0.27,0
0.619,-0.265,0
0.622,-0.26,0
0.625,-0.275,0
0.628,-0.28,0
0.631,-0.29,0
0.633,-0.275,0
0.636,-0.27,0
0.639,-0.26,0
0.642,-0.28,0
0.644,-0.28,0
0.647,-0.285,0
0.65,-0.275,0
0.653,-0.275,0
0.656,-0.265,0
0.658,-0.27,0
0.661,-0.285,0
0.664,-0.29,0
0.667,-0.28,0
0.669,-0.275,0
0.672,-0.285,0
0.675,-0.28,0
0.678,-0.3,0
0.681,-0.3,0
0.683,-0.305,0
0.686,-0.295,0
0.689,-0.3,0
0.692,-0.31,0
0.694,-0.31,0
0.697,-0.305,0
0.7,-0.295,0
0.703,-0.285,0
0.706,-0.285,0
0.708,-0.29,0
0.711,-0.295,0
0.714,-0.31,0
0.717,-0.29,0
0.719,-0.295,0
0.722,-0.3,0
0.725,-0.305,0
0.728,-0.31,0
0.731,-0.325,0
0.733,-0.31,0
0.736,-0.3,0
0.739,-0.29,0
0.742,-0.31,0
0.744,-0.325,0
0.747,-0.33,0
0.75,-0.315,0
0.753,-0.3,0
0.756,-0.305,0
0.758,-0.31,0
0.761,-0.32,0
0.764,-0.33,0
0.767,-0.325,0
0.769,-0.315,0
0.772,-0.31,0
0.775,-0.305,0
0.778,-0.305,0
0.781,-0.31,0
0.783,-0.3,0
0.786,-0.305,0
0.789,-0.29,0
0.792,-0.3,0
0.794,-0.3,0
0.797,-0.305,0
0.8,-0.305,0
0.803,-0.29,0
0.806,-0.28,0
0.808,-0.295,0
0.811,-0.305,0
0.814,-0.315,0
0.817,-0.305,0
0.819,-0.295,0
0.822,-0.29,0
0.825,-0.28,0
0.828,-0.27,0
0.831,-0.275,0
0.833,-0.275,0
0.836,-0.27,0
0.839,-0.25,0
0.842,-0.25,0
0.844,-0.255,0
0.847,-0.225,0
0.85,-0.22,0
0.853,-0.205,0
0.856,-0.2,0
0.858,-0.205,0
0.861,-0.215,0
0.864,-0.23,0
0.867,-0.22,0
0.869,-0.225,0
0.872,-0.225,0
0.875,-0.225,0
0.878,-0.23,0
0.881,-0.235,0
0.883,-0.24,0
0.886,-0.235,0
0.889,-0.22,0
0.892,-0.21,0
0.894,-0.205,0
0.897,-0.245,0
0.9,-0.285,0
0.903,-0.285,0
0.906,-0.3,0
0.908,-0.31,0
0.911,-0.33,0
0.914,-0.33,0
0.917,-0.325,0
0.919,-0.315,0
0.922,-0.32,0
0.925,-0.315,0
0.928,-0.325,0
0.931,-0.34,0
0.933,-0.345,0
0.936,-0.34,0
0.939,-0.34,0
0.942,-0.35,0
0.944,-0.345,0
0.947,-0.355,0
0.95,-0.33,0
0.953,-0.335,0
0.956,-0.33,0
0.958,-0.32,0
0.961,-0.345,0
0.964,-0.355,0
0.967,-0.34,0
0.969,-0.33,0
0.972,-0.325,0
0.975,-0.33,0
0.978,-0.35,0
0.981,-0.365,0
0.983,-0.36,0
0.986,-0.38,0
0.989,-0.425,0
0.992,-0.445,0
0.994,-0.475,0
0.997,-0.51,0
1,-0.535,0
1.003,-0.505,0
1.006,-0.415,0
1.008,-0.3,0
1.011,-0.16,0
1.014,-0.015,0
1.017,0.235,0
1.019,0.49,0
1.022,0.72,0
1.025,0.875,0
1.028,0.94,0
1.031,0.905,0
1.033,0.755,0
1.036,0.49,0
1.039,0.165,0
1.042,-0.11,0
1.044,-0.27,0
1.047,-0.39,0
1.05,-0.45,0
1.053,-0.475,0
1.056,-0.455,0
1.058,-0.425,0
1.061,-0.39,0
1.064,-0.39,0
1.067,-0.385,0
1.069,-0.39,0
1.072,-0.38,0
1.075,-0.38,0
1.078,-0.38,0
1.081,-0.395,0
1.083,-0.385,0
1.086,-0.385,0
1.089,-0.385,0
1.092,-0.375,0
1.094,-0.395,0
1.097,-0.41,0
1.1,-0.41,0
1.103,-0.4,0
1.106,-0.395,0
1.108,-0.39,0
1.111,-0.405,0
1.114,-0.395,0
1.117,-0.385,0
1.119,-0.375,0
1.122,-0.39,0
1.125,-0.39,0
1.128,-0.405,0
1.131,-0.41,0
1.133,-0.41,0
1.136,-0.39,0
1.139,-0.39,0
1.142,-0.395,0
1.144,-0.405,0
1.147,-0.415,0
1.15,-0.4,0
1.153,-0.41,0
1.156,-0.405,0
1.158,-0.41,0
1.161,-0.415,0
1.164,-0.41,0
1.167,-0.4,0
1.169,-0.4,0
1.172,-0.395,0
1.175,-0.39,0
1.178,-0.405,0
1.181,-0.41,0
1.183,-0.39,0
1.186,-0.39,0
1.189,-0.385,0
1.192,-0.385,0
1.194,-0.41,0
1.197,-0.405,0
1.2,-0.395,0
1.203,-0.39,0
1.206,-0.375,0
1.208,-0.39,0
1.211,-0.395,0
1.214,-0.41,0
1.217,-0.4,0
1.219,-0.39,0
1.222,-0.39,0
1.225,-0.385,0
1.228,-0.405,0
1.231,-0.415,0
1.233,-0.415,0
1.236,-0.4,0
1.239,-0.395,0
1.242,-0.405,0
1.244,-0.415,0
1.247,-0.42,0
1.25,-0.42,0
1.253,-0.41,0
1.256,-0.415,0
1.258,-0.425,0
1.261,-0.42,0
1.264,-0.435,0
1.267,-0.43,0
1.269,-0.43,0
1.272,-0.42,0
1.275,-0.43,0
1.278,-0.45,0
1.281,-0.455,0
1.283,-0.45,0
1.286,-0.435,0
1.289,-0.445,0
1.292,-0.45,0
1.294,-0.455,0
1.297,-0.47,0
1.3,-0.46,0
1.303,-0.455,0
1.306,-0.45,0
1.308,-0.455,0
1.311,-0.47,0
1.314,-0.475,0
1.317,-0.46,0
1.319,-0.45,0
1.322,-0.445,0
1.325,-0.44,0
1.328,-0.435,0
1.331,-0.44,0
1.333,-0.41,0
1.336,-0.395,0
1.339,-0.37,0
1.342,-0.365,0
1.344,-0.36,0
1.347,-0.365,0
1.35,-0.34,0
1.353,-0.325,0
1.356,-0.315,0
1.358,-0.32,0
1.361,-0.33,0
1.364,-0.33,0
1.367,-0.32,0
1.369,-0.31,0
1.372,-0.3,0
1.375,-0.3,0
1.378,-0.32,0
1.381,-0.32,0
1.383,-0.315,0
1.386,-0.305,0
1.389,-0.305,0
1.392,-0.295,0
1.394,-0.32,0
1.397,-0.33,0
1.4,-0.305,0
1.403,-0.31,0
1.406,-0.3,0
1.408,-0.3,0
1.411,-0.32,0
1.414,-0.325,0
1.417,-0.31,0
1.419,-0.305,0
1.422,-0.315,0
1.425,-0.305,0
1.428,-0.315,0
1.431,-0.315,0
1.433,-0.31,0
1.436,-0.295,0
1.439,-0.29,0
1.442,-0.305,0
1.444,-0.31,0
1.447,-0.32,0
1.45,-0.315,0
1.453,-0.3,0
1.456,-0.315,0
1.458,-0.315,0
1.461,-0.315,0
1.464,-0.33,0
1.467,-0.315,0
1.469,-0.32,0
1.472,-0.315,0
1.475,-0.325,0
1.478,-0.335,0
1.481,-0.34,0
1.483,-0.335,0
1.486,-0.335,0
1.489,-0.33,0
1.492,-0.325,0
1.494,-0.345,0
1.497,-0.35,0
1.5,-0.345,0
1.503,-0.335,0
1.506,-0.33,0
1.508,-0.33,0
1.511,-0.345,0
1.514,-0.345,0
1.517,-0.345,0
1.519,-0.32,0
1.522,-0.33,0
1.525,-0.335,0
1.528,-0.34,0
1.531,-0.355,0
1.533,-0.335,0
1.536,-0.33,0
1.539,-0.33,0
1.542,-0.335,0
1.544,-0.355,0
1.547,-0.36,0
1.55,-0.355,0
1.553,-0.35,0
1.556,-0.34,0
1.558,-0.345,0
1.561,-0.345,0
1.564,-0.345,0
1.567,-0.345,0
1.569,-0.33,0
1.572,-0.33,0
1.575,-0.335,0
1.578,-0.345,0
1.581,-0.35,0
1.583,-0.35,0
1.586,-0.34,0
1.589,-0.33,0
1.592,-0.345,0
1.594,-0.345,0
1.597,-0.355,0
1.6,-0.35,0
1.603,-0.34,0
1.606,-0.33,0
1.608,-0.34,0
1.611,-0.34,0
1.614,-0.34,0
1.617,-0.33,0
1.619,-0.335,0
1.622,-0.33,0
1.625,-0.335,0
1.628,-0.345,0
1.631,-0.345,0
1.633,-0.34,0
1.636,-0.33,0
1.639,-0.315,0
1.642,-0.295,0
1.644,-0.3,0
1.647,-0.295,0
1.65,-0.285,0
1.653,-0.275,0
1.656,-0.265,0
1.658,-0.265,0
1.661,-0.265,0
1.664,-0.255,0
1.667,-0.25,0
1.669,-0.24,0
1.672,-0.225,0
1.675,-0.215,0
1.678,-0.24,0
1.681,-0.245,0
1.683,-0.24,0
1.686,-0.245,0
1.689,-0.235,0
1.692,-0.245,0
1.694,-0.25,0
1.697,-0.275,0
1.7,-0.275,0
1.703,-0.265,0
1.706,-0.25,0
1.708,-0.225,0
1.711,-0.22,0
1.714,-0.23,0
1.717,-0.265,0
1.719,-0.27,0
1.722,-0.28,0
1.725,-0.285,0
1.728,-0.305,0
1.731,-0.32,0
1.733,-0.34,0
1.736,-0.33,0
1.739,-0.335,0
1.742,-0.335,0
1.744,-0.355,0
1.747,-0.37,0
1.75,-0.36,0
1.753,-0.345,0
1.756,-0.35,0
1.758,-0.355,0
1.761,-0.365,0
1.764,-0.375,0
1.767,-0.38,0
1.769,-0.37,0
1.772,-0.365,0
1.775,-0.365,0
1.778,-0.38,0
1.781,-0.385,0
1.783,-0.38,0
1.786,-0.375,0
1.789,-0.355,0
1.792,-0.37,0
1.794,-0.39,0
1.797,-0.405,0
1.8,-0.41,0
1.803,-0.435,0
1.806,-0.465,0
1.808,-0.49,0
1.811,-0.52,0
1.814,-0.555,0
1.817,-0.57,0
1.819,-0.525,0
1.822,-0.405,0
1.825,-0.25,0
1.828,-0.09,0
1.831,0.12,0
1.833,0.41,0
1.836,0.69,0
1.839,0.885,0
1.842,0.96,0
1.844,0.85,0
1.847,0.52,0
1.85,0.05,0
1.853,-0.32,0
1.856,-0.5,0
1.858,-0.505,0
1.861,-0.445,0
1.864,-0.415,0
1.867,-0.395,0
1.869,-0.39,0
1.872,-0.395,0
1.875,-0.39,0
1.878,-0.395,0
1.881,-0.405,0
1.883,-0.395,0
1.886,-0.405,0
1.889,-0.39,0
1.892,-0.395,0
1.894,-0.395,0
1.897,-0.41,0
1.9,-0.405,0
1.903,-0.4,0
1.906,-0.4,0
1.908,-0.415,0
1.911,-0.405,0
1.914,-0.42,0
1.917,-0.415,0
1.919,-0.405,0
1.922,-0.405,0
1.925,-0.42,0
1.928,-0.42,0
1.931,-0.435,0
1.933,-0.42,0
1.936,-0.41,0
1.939,-0.41,0
1.942,-0.405,0
1.944,-0.425,0
1.947,-0.43,0
1.95,-0.42,0
1.953,-0.415,0
1.956,-0.41,0
1.958,-0.41,0
1.961,-0.425,0
1.964,-0.42,0
1.967,-0.4,0
1.969,-0.395,0
1.972,-0.4,0
1.975,-0.4,0
1.978,-0.395,0
1.981,-0.415,0
1.983,-0.405,0
1.986,-0.39,0
1.989,-0.4,0
1.992,-0.4,0
1.994,-0.415,0
1.997,-0.425,0
2,-0.425,0
2.003,-0.415,0
2.006,-0.415,0
2.008,-0.41,0
2.011,-0.425,0
2.014,-0.425,0
2.017,-0.42,0
2.019,-0.415,0
2.022,-0.4,0
2.025,-0.4,0
2.028,-0.41,0
2.031,-0.425,0
2.033,-0.41,0
2.036,-0.405,0
2.039,-0.395,0
2.042,-0.4,0
2.044,-0.4,0
2.047,-0.405,0
2.05,-0.385,0
2.053,-0.4,0
2.056,-0.39,0
2.058,-0.39,0
2.061,-0.4,0
2.064,-0.415,0
2.067,-0.405,0
2.069,-0.405,0
2.072,-0.41,0
2.075,-0.415,0
2.078,-0.42,0
2.081,-0.42,0
2.083,-0.425,0
2.086,-0.415,0
2.089,-0.415,0
2.092,-0.41,0
2.094,-0.435,0
2.097,-0.43,0
2.1,-0.435,0
2.103,-0.42,0
2.106,-0.42,0
2.108,-0.42,0
2.111,-0.42,0
2.114,-0.425,0
2.117,-0.425,0
2.119,-0.415,0
2.122,-0.395,0
2.125,-0.395,0
2.128,-0.39,0
2.131,-0.375,0
2.133,-0.36,0
2.136,-0.34,0
2.139,-0.335,0
2.142,-0.33,0
2.144,-0.335,0
2.147,-0.335,0
2.15,-0.325,0
2.153,-0.32,0
2.156,-0.305,0
2.158,-0.305,0
2.161,-0.315,0
2.164,-0.31,0
2.167,-0.305,0
2.169,-0.3,0
2.172,-0.3,0
2.175,-0.3,0
2.178,-0.31,0
2.181,-0.31,0
2.183,-0.31,0
2.186,-0.315,0
2.189,-0.3,0
2.192,-0.305,0
2.194,-0.315,0
2.197,-0.32,0
2.2,-0.325,0
2.203,-0.31,0
2.206,-0.305,0
2.208,-0.305,0
2.211,-0.32,0
2.214,-0.325,0
2.217,-0.305,0
2.219,-0.31,0
2.222,-0.295,0
2.225,-0.31,0
2.228,-0.325,0
2.231,-0.33,0
2.233,-0.32,0
2.236,-0.32,0
2.239,-0.32,0
2.242,-0.325,0
2.244,-0.35,0
2.247,-0.35,0
2.25,-0.34,0
2.253,-0.335,0
2.256,-0.33,0
2.258,-0.335,0
2.261,-0.34,0
2.264,-0.36,0
2.267,-0.35,0
2.269,-0.35,0
2.272,-0.355,0
2.275,-0.36,0
2.278,-0.355,0
2.281,-0.365,0
2.283,-0.355,0
2.286,-0.35,0
2.289,-0.34,0
2.292,-0.355,0
2.294,-0.35,0
2.297,-0.365,0
2.3,-0.365,0
2.303,-0.35,0
2.306,-0.355,0
2.308,-0.35,0
2.311,-0.37,0
2.314,-0.38,0
2.317,-0.37,0
2.319,-0.36,0
2.322,-0.365,0
2.325,-0.36,0
2.328,-0.365,0
2.331,-0.38,0
2.333,-0.37,0
2.336,-0.365,0
2.339,-0.35,0
2.342,-0.35,0
2.344,-0.35,0
2.347,-0.37,0
2.35,-0.365,0
2.353,-0.345,0
2.356,-0.345,0
2.358,-0.34,0
2.361,-0.355,0
2.364,-0.365,0
2.367,-0.36,0
2.369,-0.355,0
2.372,-0.355,0
2.375,-0.355,0
2.378,-0.375,0
2.381,-0.385,0
2.383,-0.355,0
2.386,-0.36,0
2.389,-0.355,0
2.392,-0.36,0
2.394,-0.36,0
2.397,-0.37,0
2.4,-0.36,0
2.403,-0.345,0
2.406,-0.355,0
2.408,-0.345,0
2.411,-0.345,0
2.414,-0.345,0
2.417,-0.34,0
2.419,-0.31,0
2.422,-0.305,0
2.425,-0.305,0
2.428,-0.31,0
2.431,-0.305,0
2.433,-0.29,0
2.436,-0.285,0
2.439,-0.275,0
2.442,-0.28,0
2.444,-0.28,0
2.447,-0.275,0
2.45,-0.265,0
2.453,-0.255,0
2.456,-0.245,0
2.458,-0.26,0
2.461,-0.265,0
2.464,-0.275,0
2.467,-0.28,0
2.469,-0.265,0
2.472,-0.27,0
2.475,-0.275,0
2.478,-0.28,0
2.481,-0.275,0
2.483,-0.28,0
2.486,-0.275,0
2.489,-0.265,0
2.492,-0.255,0
2.494,-0.24,0
2.497,-0.26,0
2.5,-0.28,0
2.503,-0.31,0
2.506,-0.31,0
2.508,-0.345,0
2.511,-0.36,0
2.514,-0.38,0
2.517,-0.385,0
2.519,-0.38,0
2.522,-0.37,0
2.525,-0.375,0
2.528,-0.385,0
2.531,-0.39,0
2.533,-0.395,0
2.536,-0.385,0
2.539,-0.385,0
2.542,-0.385,0
2.544,-0.395,0
2.547,-0.405,0
2.55,-0.4,0
2.553,-0.375,0
2.556,-0.375,0
2.558,-0.39,0
2.561,-0.395,0
2.564,-0.415,0
2.567,-0.405,0
2.569,-0.4,0
2.572,-0.39,0
2.575,-0.405,0
2.578,-0.425,0
2.581,-0.46,0
2.583,-0.475,0
2.586,-0.505,0
2.589,-0.51,0
2.592,-0.525,0
2.594,-0.54,0
2.597,-0.6,0
2.6,-0.645,0
2.603,-0.63,0
2.606,-0.575,0
2.608,-0.495,0
2.611,-0.385,0
2.614,-0.27,0
2.617,-0.115,0
2.619,0.09,0
2.622,0.37,0
2.625,0.635,0
2.628,0.81,0
2.631,0.86,0
2.633,0.77,0
2.636,0.475,0
2.639,0.065,0
2.642,-0.305,0
2.644,-0.5,0
2.647,-0.52,0
2.65,-0.475,0
2.653,-0.41,0
2.656,-0.39,0
2.658,-0.39,0
2.661,-0.4,0
2.664,-0.41,0
2.667,-0.405,0
2.669,-0.385,0
2.672,-0.39,0
2.675,-0.395,0
2.678,-0.405,0
2.681,-0.41,0
2.683,-0.405,0
2.686,-0.4,0
2.689,-0.39,0
2.692,-0.395,0
2.694,-0.41,0
2.697,-0.415,0
2.7,-0.41,0
2.703,-0.395,0
2.706,-0.405,0
2.708,-0.41,0
2.711,-0.405,0
2.714,-0.405,0
2.717,-0.41,0
2.719,-0.39,0
2.722,-0.385,0
2.725,-0.39,0
2.728,-0.395,0
2.731,-0.4,0
2.733,-0.4,0
2.736,-0.4,0
2.739,-0.395,0
2.742,-0.395,0
2.744,-0.405,0
2.747,-0.405,0
2.75,-0.4,0
2.753,-0.395,0
2.756,-0.385,0
2.758,-0.375,0
2.761,-0.385,0
2.764,-0.395,0
2.767,-0.39,0
2.769,-0.385,0
2.772,-0.375,0
2.775,-0.385,0
2.778,-0.395,0
2.781,-0.395,0
2.783,-0.385,0
2.786,-0.375,0
2.789,-0.375,0
2.792,-0.385,0
2.794,-0.395,0
2.797,-0.39,0
2.8,-0.39,0
2.803,-0.365,0
2.806,-0.375,0
2.808,-0.385,0
2.811,-0.395,0
2.814,-0.38,0
2.817,-0.385,0
2.819,-0.375,0
2.822,-0.38,0
2.825,-0.39,0
2.828,-0.38,0
2.831,-0.375,0
2.833,-0.375,0
2.836,-0.375,0
2.839,-0.375,0
2.842,-0.38,0
2.844,-0.39,0
2.847,-0.39,0
2.85,-0.365,0
2.853,-0.37,0
2.856,-0.375,0
2.858,-0.385,0
2.861,-0.39,0
2.864,-0.39,0
2.867,-0.375,0
2.869,-0.365,0
2.872,-0.385,0
2.875,-0.38,0
2.878,-0.39,0
2.881,-0.375,0
2.883,-0.375,0
2.886,-0.365,0
2.889,-0.37,0
2.892,-0.385,0
2.894,-0.395,0
2.897,-0.385,0
2.9,-0.385,0
2.903,-0.37,0
2.906,-0.365,0
2.908,-0.37,0
2.911,-0.375,0
2.914,-0.35,0
2.917,-0.335,0
2.919,-0.32,0
2.922,-0.315,0
2.925,-0.32,0
2.928,-0.325,0
2.931,-0.315,0
2.933,-0.295,0
2.936,-0.285,0
2.939,-0.3,0
2.942,-0.295,0
2.944,-0.285,0
2.947,-0.285,0
2.95,-0.28,0
2.953,-0.27,0
2.956,-0.28,0
2.958,-0.29,0
2.961,-0.295,0
2.964,-0.295,0
2.967,-0.29,0
2.969,-0.28,0
2.972,-0.29,0
2.975,-0.295,0
2.978,-0.31,0
2.981,-0.295,0
2.983,-0.285,0
2.986,-0.28,0
2.989,-0.275,0
2.992,-0.295,0
2.994,-0.305,0
2.997,-0.3,0
3,-0.295,0
3.003,-0.295,0
3.006,-0.285,0
3.008,-0.3,0
3.011,-0.305,0
3.014,-0.3,0
3.017,-0.295,0
3.019,-0.3,0
3.022,-0.305,0
3.025,-0.315,0
3.028,-0.31,0
3.031,-0.315,0
3.033,-0.295,0
3.036,-0.3,0
3.039,-0.31,0
3.042,-0.33,0
3.044,-0.34,0
3.047,-0.33,0
3.05,-0.32,0
3.053,-0.32,0
3.056,-0.315,0
3.058,-0.325,0
3.061,-0.335,0
3.064,-0.33,0
3.067,-0.315,0
3.069,-0.32,0
3.072,-0.32,0
3.075,-0.33,0
3.078,-0.345,0
3.081,-0.34,0
3.083,-0.335,0
3.086,-0.33,0
3.089,-0.335,0
3.092,-0.345,0
3.094,-0.35,0
3.097,-0.345,0
3.1,-0.34,0
3.103,-0.335,0
3.106,-0.335,0
3.108,-0.33,0
3.111,-0.335,0
3.114,-0.34,0
3.117,-0.335,0
3.119,-0.32,0
3.122,-0.34,0
3.125,-0.34,0
3.128,-0.35,0
3.131,-0.365,0
3.133,-0.36,0
3.136,-0.345,0
3.139,-0.345,0
3.142,-0.35,0
3.144,-0.35,0
3.147,-0.35,0
3.15,-0.34,0
3.153,-0.34,0
3.156,-0.345,0
3.158,-0.345,0
3.161,-0.38,0
3.164,-0.36,0
3.167,-0.36,0
3.169,-0.345,0
3.172,-0.345,0
3.175,-0.35,0
3.178,-0.355,0
3.181,-0.345,0
3.183,-0.33,0
3.186,-0.33,0
3.189,-0.335,0
3.192,-0.335,0
3.194,-0.34,0
3.197,-0.33,0
3.2,-0.32,0
3.203,-0.29,0
3.206,-0.29,0
3.208,-0.3,0
3.211,-0.305,0
3.214,-0.285,0
3.217,-0.28,0
3.219,-0.275,0
3.222,-0.28,0
3.225,-0.275,0
3.228,-0.27,0
3.231,-0.265,0
3.233,-0.25,0
3.236,-0.23,0
3.239,-0.245,0
3.242,-0.24,0
3.244,-0.255,0
3.247,-0.255,0
3.25,-0.245,0
3.253,-0.235,0
3.256,-0.255,0
3.258,-0.265,0
3.261,-0.26,0
3.264,-0.255,0
3.267,-0.27,0
3.269,-0.265,0
3.272,-0.28,0
3.275,-0.255,0
3.278,-0.25,0
3.281,-0.245,0
3.283,-0.265,0
3.286,-0.28,0
3.289,-0.3,0
3.292,-0.315,0
3.294,-0.325,0
3.297,-0.335,0
3.3,-0.345,0
3.303,-0.33,0
3.306,-0.335,0
3.308,-0.345,0
3.311,-0.36,0
3.314,-0.35,0
3.317,-0.34,0
3.319,-0.335,0
3.322,-0.345,0
3.325,-0.36,0
3.328,-0.365,0
3.331,-0.375,0
3.333,-0.37,0
3.336,-0.365,0
3.339,-0.365,0
3.342,-0.38,0
3.344,-0.375,0
3.347,-0.375,0
3.35,-0.365,0
3.353,-0.37,0
3.356,-0.36,0
3.358,-0.37,0
3.361,-0.38,0
3.364,-0.365,0
3.367,-0.36,0
3.369,-0.35,0
3.372,-0.355,0
3.375,-0.37,0
3.378,-0.385,0
3.381,-0.395,0
3.383,-0.43,0
3.386,-0.445,0
3.389,-0.485,0
3.392,-0.515,0
3.394,-0.565,0
3.397,-0.555,0
3.4,-0.475,0
3.403,-0.355,0
3.406,-0.22,0
3.408,-0.055,0
3.411,0.185,0
3.414,0.475,0
3.417,0.705,0
3.419,0.82,0
3.422,0.78,0
3.425,0.535,0
3.428,0.145,0
3.431,-0.2,0
3.433,-0.42,0
3.436,-0.5,0
3.439,-0.48,0
3.442,-0.45,0
3.444,-0.41,0
3.447,-0.4,0
3.45,-0.39,0
3.453,-0.39,0
3.456,-0.4,0
3.458,-0.405,0
3.461,-0.425,0
3.464,-0.425,0
3.467,-0.405,0
3.469,-0.395,0
3.472,-0.405,0
3.475,-0.405,0
3.478,-0.415,0
3.481,-0.405,0
3.483,-0.385,0
3.486,-0.39,0
3.489,-0.395,0
3.492,-0.395,0
3.494,-0.395,0
3.497,-0.395,0
3.5,-0.385,0
3.503,-0.39,0
3.506,-0.39,0
3.508,-0.4,0
3.511,-0.425,0
3.514,-0.41,0
3.517,-0.4,0
3.519,-0.395,0
3.522,-0.4,0
3.525,-0.405,0
3.528,-0.425,0
3.531,-0.415,0
3.533,-0.405,0
3.536,-0.405,0
3.539,-0.405,0
3.542,-0.41,0
3.544,-0.415,0
3.547,-0.405,0
3.55,-0.42,0
3.553,-0.405,0
3.556,-0.41,0
3.558,-0.41,0
3.561,-0.42,0
3.564,-0.415,0
3.567,-0.405,0
3.569,-0.395,0
3.572,-0.395,0
3.575,-0.395,0
3.578,-0.4,0
3.581,-0.395,0
3.583,-0.395,0
3.586,-0.405,0
3.589,-0.405,0
3.592,-0.42,0
3.594,-0.435,0
3.597,-0.415,0
3.6,-0.405,0
3.603,-0.395,0
3.606,-0.39,0
3.608,-0.415,0
3.611,-0.405,0
3.614,-0.405,0
3.617,-0.4,0
3.619,-0.395,0
3.622,-0.395,0
3.625,-0.405,0
3.628,-0.42,0
3.631,-0.415,0
3.633,-0.4,0
3.636,-0.395,0
3.639,-0.4,0
3.642,-0.405,0
3.644,-0.425,0
3.647,-0.425,0
3.65,-0.425,0
3.653,-0.42,0
3.656,-0.425,0
3.658,-0.45,0
3.661,-0.445,0
3.664,-0.45,0
3.667,-0.435,0
3.669,-0.445,0
3.672,-0.47,0
3.675,-0.455,0
3.678,-0.46,0
3.681,-0.44,0
3.683,-0.435,0
3.686,-0.425,0
3.689,-0.43,0
3.692,-0.445,0
3.694,-0.45,0
3.697,-0.445,0
3.7,-0.43,0
3.703,-0.42,0
3.706,-0.41,0
3.708,-0.425,0
3.711,-0.42,0
3.714,-0.405,0
3.717,-0.38,0
3.719,-0.37,0
3.722,-0.365,0
3.725,-0.365,0
3.728,-0.365,0
3.731,-0.345,0
3.733,-0.33,0
3.736,-0.315,0
3.739,-0.305,0
3.742,-0.305,0
3.744,-0.32,0
3.747,-0.31,0
3.75,-0.31,0
3.753,-0.305,0
3.756,-0.31,0
3.758,-0.315,0
3.761,-0.32,0
3.764,-0.315,0
3.767,-0.305,0
3.769,-0.305,0
3.772,-0.295,0
3.775,-0.31,0
3.778,-0.32,0
3.781,-0.31,0
3.783,-0.315,0
3.786,-0.295,0
3.789,-0.3,0
3.792,-0.305,0
3.794,-0.3,0
3.797,-0.285,0
3.8,-0.28,0
3.803,-0.29,0
3.806,-0.295,0
3.808,-0.305,0
3.811,-0.325,0
3.814,-0.305,0
3.817,-0.3,0
3.819,-0.3,0
3.822,-0.315,0
3.825,-0.325,0
3.828,-0.335,0
3.831,-0.325,0
3.833,-0.315,0
3.836,-0.32,0
3.839,-0.335,0
3.842,-0.33,0
3.844,-0.34,0
3.847,-0.325,0
3.85,-0.325,0
3.853,-0.32,0
3.856,-0.315,0
3.858,-0.335,0
3.861,-0.335,0
3.864,-0.345,0
3.867,-0.335,0
3.869,-0.325,0
3.872,-0.33,0
3.875,-0.315,0
3.878,-0.335,0
3.881,-0.33,0
3.883,-0.33,0
3.886,-0.33,0
3.889,-0.33,0
3.892,-0.335,0
3.894,-0.34,0
3.897,-0.33,0
3.9,-0.32,0
3.903,-0.315,0
3.906,-0.325,0
3.908,-0.335,0
3.911,-0.355,0
3.914,-0.345,0
3.917,-0.34,0
3.919,-0.335,0
3.922,-0.32,0
3.925,-0.325,0
3.928,-0.35,0
3.931,-0.33,0
3.933,-0.315,0
3.936,-0.315,0
3.939,-0.33,0
3.942,-0.33,0
3.944,-0.335,0
3.947,-0.335,0
3.95,-0.33,0
3.953,-0.33,0
3.956,-0.33,0
3.958,-0.34,0
3.961,-0.34,0
3.964,-0.34,0
3.967,-0.325,0
3.969,-0.325,0
3.972,-0.325,0
3.975,-0.345,0
3.978,-0.35,0
3.981,-0.34,0
3.983,-0.33,0
3.986,-0.32,0
3.989,-0.31,0
3.992,-0.305,0
3.994,-0.305,0
3.997,-0.275,0
4,-0.27,0
4.003,-0.255,0
4.006,-0.26,0
4.008,-0.265,0
4.011,-0.26,0
4.014,-0.25,0
4.017,-0.235,0
4.019,-0.235,0
4.022,-0.22,0
4.025,-0.235,0
4.028,-0.235,0
4.031,-0.22,0
4.033,-0.23,0
4.036,-0.225,0
4.039,-0.235,0
4.042,-0.245,0
4.044,-0.255,0
4.047,-0.24,0
4.05,-0.23,0
4.053,-0.23,0
4.056,-0.25,0
4.058,-0.255,0
4.061,-0.25,0
4.064,-0.23,0
4.067,-0.205,0
4.069,-0.195,0
4.072,-0.21,0
4.075,-0.23,0
4.078,-0.27,0
4.081,-0.27,0
4.083,-0.285,0
4.086,-0.285,0
4.089,-0.31,0
4.092,-0.33,0
4.094,-0.34,0
4.097,-0.34,0
4.1,-0.345,0
4.103,-0.35,0
4.106,-0.35,0
4.108,-0.34,0
4.111,-0.355,0
4.114,-0.345,0
4.117,-0.34,0
4.119,-0.34,0
4.122,-0.345,0
4.125,-0.355,0
4.128,-0.37,0
4.131,-0.355,0
4.133,-0.37,0
4.136,-0.345,0
4.139,-0.34,0
4.142,-0.36,0
4.144,-0.38,0
4.147,-0.36,0
4.15,-0.345,0
4.153,-0.35,0
4.156,-0.35,0
4.158,-0.355,0
4.161,-0.38,0
4.164,-0.39,0
4.167,-0.395,0
4.169,-0.425,0
4.172,-0.455,0
4.175,-0.475,0
4.178,-0.51,0
4.181,-0.545,0
4.183,-0.54,0
4.186,-0.495,0
4.189,-0.405,0
4.192,-0.295,0
4.194,-0.16,0
4.197,0.04,0
4.2,0.315,0
4.203,0.595,0
4.206,0.8,0
4.208,0.885,0
4.211,0.795,0
4.214,0.52,0
4.217,0.13,0
4.219,-0.215,0
4.222,-0.425,0
4.225,-0.5,0
4.228,-0.49,0
4.231,-0.45,0
4.233,-0.4,0
4.236,-0.39,0
4.239,-0.395,0
4.242,-0.395,0
4.244,-0.4,0
4.247,-0.39,0
4.25,-0.38,0
4.253,-0.385,0
4.256,-0.385,0
4.258,-0.4,0
4.261,-0.41,0
4.264,-0.41,0
4.267,-0.39,0
4.269,-0.39,0
4.272,-0.405,0
4.275,-0.405,0
4.278,-0.415,0
4.281,-0.41,0
4.283,-0.395,0
4.286,-0.395,0
4.289,-0.4,0
4.292,-0.415,0
4.294,-0.415,0
4.297,-0.415,0
4.3,-0.4,0
4.303,-0.39,0
4.306,-0.39,0
4.308,-0.41,0
4.311,-0.415,0
4.314,-0.405,0
4.317,-0.395,0
4.319,-0.395,0
4.322,-0.395,0
4.325,-0.405,0
4.328,-0.41,0
4.331,-0.41,0
4.333,-0.4,0
4.336,-0.39,0
4.339,-0.395,0
4.342,-0.41,0
4.344,-0.425,0
4.347,-0.415,0
4.35,-0.405,0
4.353,-0.41,0
4.356,-0.405,0
4.358,-0.415,0
4.361,-0.425,0
4.364,-0.425,0
4.367,-0.41,0
4.369,-0.395,0
4.372,-0.39,0
4.375,-0.4,0
4.378,-0.41,0
4.381,-0.41,0
4.383,-0.4,0
4.386,-0.39,0
4.389,-0.41,0
4.392,-0.42,0
4.394,-0.42,0
4.397,-0.415,0
4.4,-0.415,0
4.403,-0.405,0
4.406,-0.42,0
4.408,-0.415,0
4.411,-0.425,0
4.414,-0.41,0
4.417,-0.4,0
4.419,-0.405,0
4.422,-0.4,0
4.425,-0.4,0
4.428,-0.41,0
4.431,-0.4,0
4.433,-0.395,0
4.436,-0.395,0
4.439,-0.405,0
4.442,-0.41,0
4.444,-0.425,0
4.447,-0.425,0
4.45,-0.41,0
4.453,-0.41,0
4.456,-0.42,0
4.458,-0.43,0
4.461,-0.445,0
4.464,-0.44,0
4.467,-0.435,0
4.469,-0.43,0
4.472,-0.43,0
4.475,-0.45,0
4.478,-0.445,0
4.481,-0.445,0
4.483,-0.435,0
4.486,-0.435,0
4.489,-0.445,0
4.492,-0.44,0
4.494,-0.45,0
4.497,-0.43,0
4.5,-0.43,0
4.503,-0.415,0
4.506,-0.4,0
4.508,-0.4,0
4.511,-0.385,0
4.514,-0.365,0
4.517,-0.335,0
4.519,-0.33,0
4.522,-0.325,0
4.525,-0.33,0
4.528,-0.33,0
4.531,-0.31,0
4.533,-0.295,0
4.536,-0.285,0
4.539,-0.29,0
4.542,-0.29,0
4.544,-0.31,0
4.547,-0.295,0
4.55,-0.285,0
4.553,-0.28,0
4.556,-0.3,0
4.558,-0.29,0
4.561,-0.295,0
4.564,-0.29,0
4.567,-0.28,0
4.569,-0.275,0
4.572,-0.275,0
4.575,-0.29,0
4.578,-0.29,0
4.581,-0.285,0
4.583,-0.27,0
4.586,-0.27,0
4.589,-0.27,0
4.592,-0.275,0
4.594,-0.29,0
4.597,-0.285,0
4.6,-0.275,0
4.603,-0.275,0
4.606,-0.29,0
4.608,-0.295,0
4.611,-0.305,0
4.614,-0.295,0
4.617,-0.295,0
4.619,-0.285,0
4.622,-0.29,0
4.625,-0.3,0
4.628,-0.305,0
4.631,-0.31,0
4.633,-0.295,0
4.636,-0.3,0
4.639,-0.305,0
4.642,-0.31,0
4.644,-0.325,0
4.647,-0.325,0
4.65,-0.315,0
4.653,-0.31,0
4.656,-0.315,0
4.658,-0.315,0
4.661,-0.325,0
4.664,-0.32,0
4.667,-0.31,0
4.669,-0.32,0
4.672,-0.315,0
4.675,-0.33,0
4.678,-0.33,0
4.681,-0.32,0
4.683,-0.31,0
4.686,-0.31,0
4.689,-0.31,0
4.692,-0.33,0
4.694,-0.335,0
4.697,-0.33,0
4.7,-0.32,0
4.703,-0.325,0
4.706,-0.325,0
4.708,-0.33,0
4.711,-0.335,0
4.714,-0.33,0
4.717,-0.325,0
4.719,-0.325,0
4.722,-0.32,0
4.725,-0.325,0
4.728,-0.33,0
4.731,-0.325,0
4.733,-0.315,0
4.736,-0.305,0
4.739,-0.325,0
4.742,-0.315,0
4.744,-0.335,0
4.747,-0.33,0
4.75,-0.31,0
4.753,-0.32,0
4.756,-0.33,0
4.758,-0.33,0
4.761,-0.335,0
4.764,-0.33,0
4.767,-0.33,0
4.769,-0.32,0
4.772,-0.32,0
4.775,-0.33,0
4.778,-0.33,0
4.781,-0.325,0
4.783,-0.315,0
4.786,-0.315,0
4.789,-0.315,0
4.792,-0.33,0
4.794,-0.33,0
4.797,-0.32,0
4.8,-0.315,0
4.803,-0.305,0
4.806,-0.305,0
4.808,-0.295,0
4.811,-0.315,0
4.814,-0.3,0
4.817,-0.275,0
4.819,-0.255,0
4.822,-0.255,0
4.825,-0.26,0
4.828,-0.265,0
4.831,-0.255,0
4.833,-0.235,0
4.836,-0.23,0
4.839,-0.225,0
4.842,-0.22,0
4.844,-0.22,0
4.847,-0.215,0
4.85,-0.2,0
4.853,-0.205,0
4.856,-0.205,0
4.858,-0.225,0
4.861,-0.235,0
4.864,-0.24,0
4.867,-0.23,0
4.869,-0.215,0
4.872,-0.24,0
4.875,-0.24,0
4.878,-0.25,0
4.881,-0.235,0
4.883,-0.21,0
4.886,-0.2,0
4.889,-0.22,0
4.892,-0.255,0
4.894,-0.275,0
4.897,-0.285,0
4.9,-0.3,0
4.903,-0.305,0
4.906,-0.32,0
4.908,-0.33,0
4.911,-0.325,0
4.914,-0.32,0
4.917,-0.33,0
4.919,-0.33,0
4.922,-0.335,0
4.925,-0.34,0
4.928,-0.345,0
4.931,-0.34,0
4.933,-0.335,0
4.936,-0.32,0
4.939,-0.325,0
4.942,-0.335,0
4.944,-0.345,0
4.947,-0.345,0
4.95,-0.345,0
4.953,-0.335,0
4.956,-0.34,0
4.958,-0.345,0
4.961,-0.355,0
4.964,-0.34,0
4.967,-0.34,0
4.969,-0.34,0
4.972,-0.34,0
4.975,-0.345,0
4.978,-0.355,0
4.981,-0.365,0
4.983,-0.37,0
4.986,-0.405,0
4.989,-0.445,0
4.992,-0.48,0
4.994,-0.495,0
4.997,-0.52,0
5,-0.535,0
5.003,-0.505,0
5.006,-0.415,0
5.008,-0.28,0
5.011,-0.135,0
5.014,0.065,0
5.017,0.3,0
5.019,0.58,0
5.022,0.81,0
5.025,0.945,0
5.028,0.92,0
5.031,0.775,0
5.033,0.445,0
5.036,0.02,0
5.039,-0.295,0
5.042,-0.445,0
5.044,-0.47,0
5.047,-0.425,0
5.05,-0.38,0
5.053,-0.36,0
5.056,-0.36,0
5.058,-0.37,0
5.061,-0.38,0
5.064,-0.38,0
5.067,-0.375,0
5.069,-0.37,0
5.072,-0.365,0
5.075,-0.37,0
5.078,-0.385,0
5.081,-0.385,0
5.083,-0.375,0
5.086,-0.37,0
5.089,-0.37,0
5.092,-0.385,0
5.094,-0.395,0
5.097,-0.385,0
5.1,-0.385,0
5.103,-0.39,0
5.106,-0.385,0
5.108,-0.395,0
5.111,-0.41,0
5.114,-0.4,0
5.117,-0.395,0
5.119,-0.38,0
5.122,-0.395,0
5.125,-0.395,0
5.128,-0.4,0
5.131,-0.4,0
5.133,-0.395,0
5.136,-0.39,0
5.139,-0.39,0
5.142,-0.395,0
5.144,-0.405,0
5.147,-0.39,0
5.15,-0.385,0
5.153,-0.375,0
5.156,-0.375,0
5.158,-0.38,0
5.161,-0.39,0
5.164,-0.385,0
5.167,-0.37,0
5.169,-0.37,0
5.172,-0.37,0
5.175,-0.375,0
5.178,-0.385,0
5.181,-0.37,0
5.183,-0.39,0
5.186,-0.375,0
5.189,-0.37,0
5.192,-0.38,0
5.194,-0.39,0
5.197,-0.39,0
5.2,-0.385,0
5.203,-0.375,0
5.206,-0.375,0
5.208,-0.385,0
5.211,-0.395,0
5.214,-0.39,0
5.217,-0.385,0
5.219,-0.375,0
5.222,-0.38,0
5.225,-0.385,0
5.228,-0.39,0
5.231,-0.38,0
5.233,-0.38,0
5.236,-0.37,0
5.239,-0.37,0
5.242,-0.365,0
5.244,-0.39,0
5.247,-0.365,0
5.25,-0.365,0
5.253,-0.36,0
5.256,-0.375,0
5.258,-0.38,0
5.261,-0.4,0
5.264,-0.39,0
5.267,-0.375,0
5.269,-0.375,0
5.272,-0.37,0
5.275,-0.385,0
5.278,-0.39,0
5.281,-0.39,0
5.283,-0.39,0
5.286,-0.39,0
5.289,-0.375,0
5.292,-0.385,0
5.294,-0.395,0
5.297,-0.38,0
5.3,-0.37,0
5.303,-0.375,0
5.306,-0.375,0
5.308,-0.39,0
5.311,-0.405,0
5.314,-0.375,0
5.317,-0.37,0
5.319,-0.36,0
5.322,-0.375,0
5.325,-0.385,0
5.328,-0.38,0
5.331,-0.37,0
5.333,-0.36,0
5.336,-0.345,0
5.339,-0.345,0
5.342,-0.33,0
5.344,-0.33,0
5.347,-0.315,0
5.35,-0.31,0
5.353,-0.295,0
5.356,-0.285,0
5.358,-0.285,0
5.361,-0.295,0
5.364,-0.28,0
5.367,-0.27,0
5.369,-0.28,0
5.372,-0.28,0
5.375,-0.28,0
5.378,-0.29,0
5.381,-0.29,0
5.383,-0.28,0
5.386,-0.275,0
5.389,-0.28,0
5.392,-0.285,0
5.394,-0.29,0
5.397,-0.29,0
5.4,-0.28,0
5.403,-0.28,0
5.406,-0.285,0
5.408,-0.29,0
5.411,-0.3,0
5.414,-0.295,0
5.417,-0.285,0
5.419,-0.28,0
5.422,-0.285,0
5.425,-0.285,0
5.428,-0.295,0
5.431,-0.285,0
5.433,-0.28,0
5.436,-0.275,0
5.439,-0.28,0
5.442,-0.29,0
5.444,-0.31,0
5.447,-0.305,0
5.45,-0.285,0
5.453,-0.27,0
5.456,-0.27,0
5.458,-0.275,0
5.461,-0.285,0
5.464,-0.285,0
5.467,-0.27,0
5.469,-0.265,0
5.472,-0.265,0
5.475,-0.265,0
5.478,-0.28,0
5.481,-0.265,0
5.483,-0.245,0
5.486,-0.235,0
5.489,-0.235,0
5.492,-0.25,0
5.494,-0.25,0
5.497,-0.245,0
5.5,-0.215,0
5.503,-0.22,0
5.506,-0.245,0
5.508,-0.255,0
5.511,-0.23,0
5.514,-0.205,0
5.517,-0.21,0
5.519,-0.22,0
5.522,-0.23,0
5.525,-0.24,0
5.528,-0.24,0
5.531,-0.245,0
5.533,-0.25,0
5.536,-0.27,0
5.539,-0.285,0
5.542,-0.315,0
5.544,-0.32,0
5.547,-0.32,0
5.55,-0.31,0
5.553,-0.33,0
5.556,-0.34,0
5.558,-0.345,0
5.561,-0.36,0
5.564,-0.365,0
5.567,-0.36,0
5.569,-0.35,0
5.572,-0.355,0
5.575,-0.375,0
5.578,-0.385,0
5.581,-0.375,0
5.583,-0.37,0
5.586,-0.365,0
5.589,-0.365,0
5.592,-0.37,0
5.594,-0.38,0
5.597,-0.36,0
5.6,-0.35,0
5.603,-0.355,0
5.606,-0.355,0
5.608,-0.35,0
5.611,-0.365,0
5.614,-0.35,0
5.617,-0.35,0
5.619,-0.34,0
5.622,-0.355,0
5.625,-0.35,0
5.628,-0.375,0
5.631,-0.365,0
5.633,-0.375,0
5.636,-0.4,0
5.639,-0.43,0
5.642,-0.475,0
5.644,-0.52,0
5.647,-0.52,0
5.65,-0.55,0
5.653,-0.57,0
5.656,-0.54,0
5.658,-0.445,0
5.661,-0.305,0
5.664,-0.14,0
5.667,0.025,0
5.669,0.26,0
5.672,0.51,0
5.675,0.735,0
5.678,0.845,1
5.681,0.875,0
5.683,0.735,0
5.686,0.4,0
5.689,-0.025,0
5.692,-0.335,0
5.694,-0.48,0
5.697,-0.47,0
5.7,-0.415,0
5.703,-0.375,0
5.706,-0.365,0
5.708,-0.385,0
5.711,-0.4,0
5.714,-0.38,0
5.717,-0.39,0
5.719,-0.375,0
5.722,-0.385,0
5.725,-0.395,0
5.728,-0.405,0
5.731,-0.39,0
5.733,-0.38,0
5.736,-0.385,0
5.739,-0.385,0
5.742,-0.395,0
5.744,-0.4,0
5.747,-0.405,0
5.75,-0.4,0
5.753,-0.39,0
5.756,-0.39,0
5.758,-0.395,0
5.761,-0.4,0
5.764,-0.39,0
5.767,-0.385,0
5.769,-0.39,0
5.772,-0.385,0
5.775,-0.41,0
5.778,-0.42,0
5.781,-0.405,0
5.783,-0.41,0
5.786,-0.39,0
5.789,-0.39,0
5.792,-0.39,0
5.794,-0.4,0
5.797,-0.4,0
5.8,-0.39,0
5.803,-0.375,0
5.806,-0.38,0
5.808,-0.395,0
5.811,-0.4,0
5.814,-0.39,0
5.817,-0.4,0
5.819,-0.39,0
5.822,-0.395,0
5.825,-0.41,0
5.828,-0.415,0
5.831,-0.405,0
5.833,-0.385,0
5.836,-0.385,0
5.839,-0.38,0
5.842,-0.4,0
5.844,-0.4,0
5.847,-0.395,0
5.85,-0.39,0
5.853,-0.38,0
5.856,-0.375,0
5.858,-0.395,0
5.861,-0.395,0
5.864,-0.385,0
5.867,-0.38,0
5.869,-0.375,0
5.872,-0.385,0
5.875,-0.39,0
5.878,-0.4,0
5.881,-0.4,0
5.883,-0.385,0
5.886,-0.38,0
5.889,-0.395,0
5.892,-0.39,0
5.894,-0.4,0
5.897,-0.395,0
5.9,-0.385,0
5.903,-0.38,0
5.906,-0.385,0
5.908,-0.395,0
5.911,-0.405,0
5.914,-0.4,0
5.917,-0.39,0
5.919,-0.38,0
5.922,-0.38,0
5.925,-0.385,0
5.928,-0.405,0
5.931,-0.395,0
5.933,-0.4,0
5.936,-0.39,0
5.939,-0.4,0
5.942,-0.405,0
5.944,-0.425,0
5.947,-0.42,0
5.95,-0.405,0
5.953,-0.4,0
5.956,-0.405,0
5.958,-0.405,0
5.961,-0.415,0
5.964,-0.4,0
5.967,-0.39,0
5.969,-0.38,0
5.972,-0.385,0
5.975,-0.395,0
5.978,-0.405,0
5.981,-0.39,0
5.983,-0.37,0
5.986,-0.37,0
5.989,-0.37,0
5.992,-0.385,0
5.994,-0.37,0
5.997,-0.355,0
6,-0.345,0
6.003,-0.34,0
6.006,-0.335,0
6.008,-0.34,0
6.011,-0.355,0
6.014,-0.335,0
6.017,-0.325,0
6.019,-0.31,0
6.022,-0.305,0
6.025,-0.305,0
6.028,-0.32,0
6.031,-0.315,0
6.033,-0.31,0
6.036,-0.305,0
6.039,-0.305,0
6.042,-0.33,0
6.044,-0.325,0
6.047,-0.345,0
6.05,-0.325,0
6.053,-0.315,0
6.056,-0.315,0
6.058,-0.305,0
6.061,-0.31,0
6.064,-0.31,0
6.067,-0.3,0
6.069,-0.305,0
6.072,-0.305,0
6.075,-0.315,0
6.078,-0.32,0
6.081,-0.325,0
6.083,-0.315,0
6.086,-0.305,0
6.089,-0.315,0
6.092,-0.325,0
6.094,-0.325,0
6.097,-0.33,0
6.1,-0.315,0
6.103,-0.315,0
6.106,-0.31,0
6.108,-0.33,0
6.111,-0.34,0
6.114,-0.335,0
6.117,-0.33,0
6.119,-0.345,0
6.122,-0.355,0
6.125,-0.365,0
6.128,-0.37,0
6.131,-0.345,0
6.133,-0.34,0
6.136,-0.34,0
6.139,-0.345,0
6.142,-0.36,0
6.144,-0.365,0
6.147,-0.36,0
6.15,-0.36,0
6.153,-0.345,0
6.156,-0.355,0
6.158,-0.365,0
6.161,-0.35,0
6.164,-0.36,0
6.167,-0.35,0
6.169,-0.34,0
6.172,-0.345,0
6.175,-0.355,0
6.178,-0.37,0
6.181,-0.35,0
6.183,-0.35,0
6.186,-0.35,0
6.189,-0.345,0
6.192,-0.35,0
6.194,-0.355,0
6.197,-0.36,0
6.2,-0.345,0
6.203,-0.355,0
6.206,-0.35,0
6.208,-0.36,0
6.211,-0.37,0
6.214,-0.355,0
6.217,-0.355,0
6.219,-0.35,0
6.222,-0.355,0
6.225,-0.36,0
6.228,-0.39,0
6.231,-0.385,0
6.233,-0.36,0
6.236,-0.36,0
6.239,-0.37,0
6.242,-0.37,0
6.244,-0.39,0
6.247,-0.375,0
6.25,-0.37,0
6.253,-0.35,0
6.256,-0.34,0
6.258,-0.345,0
6.261,-0.36,0
6.264,-0.36,0
6.267,-0.35,0
6.269,-0.35,0
6.272,-0.335,0
6.275,-0.36,0
6.278,-0.365,0
6.281,-0.365,0
6.283,-0.36,0
6.286,-0.36,0
6.289,-0.365,0
6.292,-0.375,0
6.294,-0.385,0
6.297,-0.385,0
6.3,-0.365,0
6.303,-0.37,0
6.306,-0.375,0
6.308,-0.37,0
6.311,-0.375,0
6.314,-0.365,0
6.317,-0.355,0
6.319,-0.355,0
6.322,-0.36,0
6.325,-0.365,0
6.328,-0.37,0
6.331,-0.36,0
6.333,-0.35,0
6.336,-0.34,0
6.339,-0.345,0
6.342,-0.34,0
6.344,-0.35,0
6.347,-0.345,0
6.35,-0.35,0
6.353,-0.36,0
6.356,-0.35,0
6.358,-0.36,0
6.361,-0.37,0
6.364,-0.36,0
6.367,-0.36,0
6.369,-0.355,0
6.372,-0.36,0
6.375,-0.375,0
6.378,-0.375,0
6.381,-0.37,0
6.383,-0.35,0
6.386,-0.355,0
6.389,-0.36,0
6.392,-0.365,0
6.394,-0.375,0
6.397,-0.37,0
6.4,-0.365,0
6.403,-0.36,0
6.406,-0.355,0
6.408,-0.36,0
6.411,-0.36,0
6.414,-0.35,0
6.417,-0.34,0
6.419,-0.345,0
6.422,-0.345,0
6.425,-0.355,0
6.428,-0.36,0
6.431,-0.36,0
6.433,-0.365,0
6.436,-0.345,0
6.439,-0.355,0
6.442,-0.35,0
6.444,-0.36,0
6.447,-0.355,0
6.45,-0.36,0
6.453,-0.345,0
6.456,-0.335,0
6.458,-0.33,0
6.461,-0.33,0
6.464,-0.31,0
6.467,-0.305,0
6.469,-0.3,0
6.472,-0.305,0
6.475,-0.295,0
6.478,-0.305,0
6.481,-0.285,0
6.483,-0.275,0
6.486,-0.265,0
6.489,-0.255,0
6.492,-0.255,0
6.494,-0.26,0
6.497,-0.265,0
6.5,-0.255,0
6.503,-0.255,0
6.506,-0.26,0
6.508,-0.28,0
6.511,-0.29,0
6.514,-0.28,0
6.517,-0.27,0
6.519,-0.255,0
6.522,-0.275,0
6.525,-0.29,0
6.528,-0.32,0
6.531,-0.3,0
6.533,-0.295,0
6.536,-0.27,0
6.539,-0.265,0
6.542,-0.27,0
6.544,-0.285,0
6.547,-0.3,0
6.55,-0.31,0
6.553,-0.315,0
6.556,-0.32,0
6.558,-0.35,0
6.561,-0.37,0
6.564,-0.365,0
6.567,-0.365,0
6.569,-0.365,0
6.572,-0.37,0
6.575,-0.37,0
6.578,-0.37,0
6.581,-0.38,0
6.583,-0.36,0
6.586,-0.375,0
6.589,-0.375,0
6.592,-0.4,0
6.594,-0.42,0
6.597,-0.405,0
6.6,-0.4,0
6.603,-0.385,0
6.606,-0.38,0
6.608,-0.4,0
6.611,-0.415,0
6.614,-0.405,0
6.617,-0.395,0
6.619,-0.395,0
6.622,-0.395,0
6.625,-0.41,0
6.628,-0.43,0
6.631,-0.44,0
6.633,-0.455,0
6.636,-0.49,0
6.639,-0.485,0
6.642,-0.52,0
6.644,-0.57,0
6.647,-0.575,0
6.65,-0.525,0
6.653,-0.42,0
6.656,-0.305,0
6.658,-0.19,0
6.661,-0.02,0
6.664,0.22,0
6.667,0.485,0
6.669,0.715,0
6.672,0.845,0
6.675,0.885,0
6.678,0.79,0
6.681,0.56,0
6.683,0.225,0
6.686,-0.07,0
6.689,-0.285,0
6.692,-0.425,0
6.694,-0.5,0
6.697,-0.55,0
6.7,-0.535,0
6.703,-0.5,0
6.706,-0.465,0
6.708,-0.45,0
6.711,-0.45,0
6.714,-0.435,0
6.717,-0.42,0
6.719,-0.41,0
6.722,-0.41,0
6.725,-0.415,0
6.728,-0.42,0
6.731,-0.425,0
6.733,-0.42,0
6.736,-0.43,0
6.739,-0.43,0
6.742,-0.44,0
6.744,-0.45,0
6.747,-0.45,0
6.75,-0.43,0
6.753,-0.43,0
6.756,-0.43,0
6.758,-0.445,0
6.761,-0.445,0
6.764,-0.44,0
6.767,-0.425,0
6.769,-0.43,0
6.772,-0.43,0
6.775,-0.425,0
6.778,-0.445,0
6.781,-0.445,0
6.783,-0.43,0
6.786,-0.435,0
6.789,-0.435,0
6.792,-0.445,0
6.794,-0.445,0
6.797,-0.435,0
6.8,-0.43,0
6.803,-0.425,0
6.806,-0.43,0
6.808,-0.43,0
6.811,-0.44,0
6.814,-0.42,0
6.817,-0.43,0
6.819,-0.425,0
6.822,-0.43,0
6.825,-0.44,0
6.828,-0.44,0
6.831,-0.43,0
6.833,-0.43,0
6.836,-0.415,0
6.839,-0.425,0
6.842,-0.43,0
6.844,-0.455,0
6.847,-0.445,0
6.85,-0.445,0
6.853,-0.43,0
6.856,-0.43,0
6.858,-0.44,0
6.861,-0.44,0
6.864,-0.435,0
6.867,-0.43,0
6.869,-0.415,0
6.872,-0.415,0
6.875,-0.425,0
6.878,-0.425,0
6.881,-0.42,0
6.883,-0.405,0
6.886,-0.405,0
6.889,-0.415,0
6.892,-0.415,0
6.894,-0.425,0
6.897,-0.43,0
6.9,-0.405,0
6.903,-0.405,0
6.906,-0.405,0
6.908,-0.405,0
6.911,-0.43,0
6.914,-0.415,0
6.917,-0.41,0
6.919,-0.415,0
6.922,-0.43,0
6.925,-0.445,0
6.928,-0.465,0
6.931,-0.46,0
6.933,-0.45,0
6.936,-0.455,0
6.939,-0.46,0
6.942,-0.465,0
6.944,-0.485,0
6.947,-0.495,0
6.95,-0.475,0
6.953,-0.49,0
6.956,-0.5,0
6.958,-0.495,0
6.961,-0.515,0
6.964,-0.5,0
6.967,-0.485,0
6.969,-0.49,0
6.972,-0.485,0
6.975,-0.5,0
6.978,-0.5,0
6.981,-0.49,0
6.983,-0.48,0
6.986,-0.46,0
6.989,-0.46,0
6.992,-0.47,0
6.994,-0.465,0
6.997,-0.44,0
7,-0.43,0
7.003,-0.425,0
7.006,-0.41,0
7.008,-0.41,0
7.011,-0.4,0
7.014,-0.39,0
7.017,-0.38,0
7.019,-0.355,0
7.022,-0.35,0
7.025,-0.355,0
7.028,-0.35,0
7.031,-0.34,0
7.033,-0.33,0
7.036,-0.325,0
7.039,-0.305,0
7.042,-0.32,0
7.044,-0.315,0
7.047,-0.305,0
7.05,-0.3,0
7.053,-0.305,0
7.056,-0.305,0
7.058,-0.31,0
7.061,-0.33,0
7.064,-0.31,0
7.067,-0.315,0
7.069,-0.315,0
7.072,-0.32,0
7.075,-0.325,0
7.078,-0.325,0
7.081,-0.325,0
7.083,-0.31,0
7.086,-0.31,0
7.089,-0.315,0
7.092,-0.325,0
7.094,-0.33,0
7.097,-0.325,0
7.1,-0.325,0
7.103,-0.315,0
7.106,-0.32,0
7.108,-0.33,0
7.111,-0.335,0
7.114,-0.33,0
7.117,-0.315,0
7.119,-0.32,0
7.122,-0.32,0
7.125,-0.335,0
7.128,-0.335,0
7.131,-0.325,0
7.133,-0.325,0
7.136,-0.32,0
7.139,-0.32,0
7.142,-0.325,0
7.144,-0.35,0
7.147,-0.345,0
7.15,-0.345,0
7.153,-0.335,0
7.156,-0.345,0
7.158,-0.355,0
7.161,-0.355,0
7.164,-0.355,0
7.167,-0.345,0
7.169,-0.335,0
7.172,-0.335,0
7.175,-0.345,0
7.178,-0.355,0
7.181,-0.34,0
7.183,-0.335,0
7.186,-0.33,0
7.189,-0.335,0
7.192,-0.345,0
7.194,-0.35,0
7.197,-0.35,0
7.2,-0.34,0
7.203,-0.335,0
7.206,-0.33,0
7.208,-0.36,0
7.211,-0.355,0
7.214,-0.345,0
7.217,-0.335,0
7.219,-0.345,0
7.222,-0.35,0
7.225,-0.36,0
7.228,-0.38,0
7.231,-0.37,0
7.233,-0.345,0
7.236,-0.345,0
7.239,-0.35,0
7.242,-0.355,0
7.244,-0.365,0
7.247,-0.36,0
7.25,-0.345,0
7.253,-0.345,0
7.256,-0.35,0
7.258,-0.36,0
7.261,-0.36,0
7.264,-0.35,0
7.267,-0.355,0
7.269,-0.34,0
7.272,-0.345,0
7.275,-0.355,0
7.278,-0.355,0
7.281,-0.355,0
7.283,-0.34,0
7.286,-0.34,0
7.289,-0.345,0
7.292,-0.365,0
7.294,-0.37,0
7.297,-0.35,0
7.3,-0.33,0
7.303,-0.32,0
7.306,-0.315,0
7.308,-0.295,0
7.311,-0.305,0
7.314,-0.295,0
7.317,-0.3,0
7.319,-0.285,0
7.322,-0.275,0
7.325,-0.26,0
7.328,-0.275,0
7.331,-0.265,0
7.333,-0.26,0
7.336,-0.25,0
7.339,-0.245,0
7.342,-0.255,0
7.344,-0.265,0
7.347,-0.26,0
7.35,-0.26,0
7.353,-0.25,0
7.356,-0.26,0
7.358,-0.28,0
7.361,-0.28,0
7.364,-0.275,0
7.367,-0.285,0
7.369,-0.28,0
7.372,-0.255,0
7.375,-0.245,0
7.378,-0.245,0
7.381,-0.26,0
7.383,-0.285,0
7.386,-0.29,0
7.389,-0.3,0
7.392,-0.32,0
7.394,-0.335,0
7.397,-0.355,0
7.4,-0.35,0
7.403,-0.355,0
7.406,-0.355,0
7.408,-0.375,0
7.411,-0.385,0
7.414,-0.38,0
7.417,-0.36,0
7.419,-0.35,0
7.422,-0.36,0
7.425,-0.365,0
7.428,-0.37,0
7.431,-0.37,0
7.433,-0.365,0
7.436,-0.36,0
7.439,-0.365,0
7.442,-0.37,0
7.444,-0.385,0
7.447,-0.385,0
7.45,-0.365,0
7.453,-0.36,0
7.456,-0.38,0
7.458,-0.385,0
7.461,-0.395,0
7.464,-0.395,0
7.467,-0.385,0
7.469,-0.38,0
7.472,-0.395,0
7.475,-0.425,0
7.478,-0.465,0
7.481,-0.5,0
7.483,-0.515,0
7.486,-0.53,0
7.489,-0.56,0
7.492,-0.585,0
7.494,-0.53,0
7.497,-0.41,0
7.5,-0.255,0
7.503,-0.105,0
7.506,0.105,0
7.508,0.355,0
7.511,0.6,0
7.514,0.81,0
7.517,0.89,0
7.519,0.83,0
7.522,0.58,0
7.525,0.185,0
7.528,-0.205,0
7.531,-0.45,0
7.533,-0.525,0
7.536,-0.495,0
7.539,-0.465,0
7.542,-0.435,0
7.544,-0.415,0
7.547,-0.415,0
7.55,-0.415,0
7.553,-0.4,0
7.556,-0.395,0
7.558,-0.405,0
7.561,-0.425,0
7.564,-0.435,0
7.567,-0.415,0
7.569,-0.415,0
7.572,-0.415,0
7.575,-0.415,0
7.578,-0.43,0
7.581,-0.42,0
7.583,-0.41,0
7.586,-0.405,0
7.589,-0.42,0
7.592,-0.41,0
7.594,-0.42,0
7.597,-0.4,0
7.6,-0.395,0
7.603,-0.385,0
7.606,-0.4,0
7.608,-0.4,0
7.611,-0.4,0
7.614,-0.4,0
7.617,-0.395,0
7.619,-0.4,0
7.622,-0.4,0
7.625,-0.4,0
7.628,-0.41,0
7.631,-0.395,0
7.633,-0.41,0
7.636,-0.4,0
7.639,-0.395,0
7.642,-0.405,0
7.644,-0.41,0
7.647,-0.415,0
7.65,-0.405,0
7.653,-0.4,0
7.656,-0.395,0
7.658,-0.405,0
7.661,-0.415,0
7.664,-0.405,0
7.667,-0.415,0
7.669,-0.41,0
7.672,-0.405,0
7.675,-0.405,0
7.678,-0.41,0
7.681,-0.405,0
7.683,-0.4,0
7.686,-0.395,0
7.689,-0.405,0
7.692,-0.405,0
7.694,-0.4,0
7.697,-0.395,0
7.7,-0.39,0
7.703,-0.395,0
7.706,-0.39,0
7.708,-0.395,0
7.711,-0.42,0
7.714,-0.415,0
7.717,-0.405,0
7.719,-0.4,0
7.722,-0.4,0
7.725,-0.415,0
7.728,-0.42,0
7.731,-0.41,0
7.733,-0.395,0
7.736,-0.4,0
7.739,-0.405,0
7.742,-0.415,0
7.744,-0.435,0
7.747,-0.415,0
7.75,-0.415,0
7.753,-0.4,0
7.756,-0.405,0
7.758,-0.42,0
7.761,-0.43,0
7.764,-0.425,0
7.767,-0.41,0
7.769,-0.41,0
7.772,-0.405,0
7.775,-0.415,0
7.778,-0.425,0
7.781,-0.425,0
7.783,-0.42,0
7.786,-0.41,0
7.789,-0.41,0
7.792,-0.42,0
7.794,-0.43,0
7.797,-0.425,0
7.8,-0.42,0
7.803,-0.405,0
7.806,-0.415,0
7.808,-0.41,0
7.811,-0.41,0
7.814,-0.385,0
7.817,-0.37,0
7.819,-0.36,0
7.822,-0.35,0
7.825,-0.35,0
7.828,-0.35,0
7.831,-0.335,0
7.833,-0.32,0
7.836,-0.305,0
7.839,-0.315,0
7.842,-0.315,0
7.844,-0.32,0
7.847,-0.305,0
7.85,-0.305,0
7.853,-0.295,0
7.856,-0.29,0
7.858,-0.295,0
7.861,-0.295,0
7.864,-0.285,0
7.867,-0.285,0
7.869,-0.27,0
7.872,-0.28,0
7.875,-0.28,0
7.878,-0.295,0
7.881,-0.28,0
7.883,-0.285,0
7.886,-0.275,0
7.889,-0.285,0
7.892,-0.295,0
7.894,-0.305,0
7.897,-0.295,0
7.9,-0.285,0
7.903,-0.285,0
7.906,-0.29,0
7.908,-0.3,0
7.911,-0.31,0
7.914,-0.295,0
7.917,-0.3,0
7.919,-0.29,0
7.922,-0.285,0
7.925,-0.305,0
7.928,-0.31,0
7.931,-0.3,0
7.933,-0.295,0
7.936,-0.305,0
7.939,-0.3,0
7.942,-0.305,0
7.944,-0.32,0
7.947,-0.32,0
7.95,-0.31,0
7.953,-0.3,0
7.956,-0.31,0
7.958,-0.32,0
7.961,-0.34,0
7.964,-0.33,0
7.967,-0.31,0
7.969,-0.315,0
7.972,-0.325,0
7.975,-0.325,0
7.978,-0.345,0
7.981,-0.33,0
7.983,-0.32,0
7.986,-0.32,0
7.989,-0.335,0
7.992,-0.335,0
7.994,-0.355,0
7.997,-0.34,0
8,-0.32,0
8.003,-0.315,0
8.006,-0.33,0
8.008,-0.34,0
8.011,-0.34,0
8.014,-0.35,0
8.017,-0.33,0
8.019,-0.33,0
8.022,-0.34,0
8.025,-0.35,0
8.028,-0.355,0
8.031,-0.345,0
8.033,-0.335,0
8.036,-0.335,0
8.039,-0.34,0
8.042,-0.34,0
8.044,-0.345,0
8.047,-0.335,0
8.05,-0.335,0
8.053,-0.325,0
8.056,-0.325,0
8.058,-0.335,0
8.061,-0.34,0
8.064,-0.34,0
8.067,-0.32,0
8.069,-0.315,0
8.072,-0.32,0
8.075,-0.335,0
8.078,-0.335,0
8.081,-0.32,0
8.083,-0.325,0
8.086,-0.315,0
8.089,-0.32,0
8.092,-0.32,0
8.094,-0.345,0
8.097,-0.335,0
8.1,-0.32,0
8.103,-0.31,0
8.106,-0.32,0
8.108,-0.32,0
8.111,-0.34,0
8.114,-0.33,0
8.117,-0.32,0
8.119,-0.31,0
8.122,-0.31,0
8.125,-0.31,0
8.128,-0.295,0
8.131,-0.28,0
8.133,-0.255,0
8.136,-0.25,0
8.139,-0.25,0
8.142,-0.255,0
8.144,-0.26,0
8.147,-0.24,0
8.15,-0.22,0
8.153,-0.23,0
8.156,-0.23,0
8.158,-0.215,0
8.161,-0.22,0
8.164,-0.225,0
8.167,-0.23,0
8.169,-0.23,0
8.172,-0.235,0
8.175,-0.245,0
8.178,-0.255,0
8.181,-0.24,0
8.183,-0.235,0
8.186,-0.245,0
8.189,-0.235,0
8.192,-0.23,0
8.194,-0.22,0
8.197,-0.195,0
8.2,-0.22,0
8.203,-0.245,0
8.206,-0.26,0
8.208,-0.27,0
8.211,-0.29,0
8.214,-0.3,0
8.217,-0.305,0
8.219,-0.305,0
8.222,-0.32,0
8.225,-0.33,0
8.228,-0.35,0
8.231,-0.35,0
8.233,-0.335,0
8.236,-0.335,0
8.239,-0.335,0
8.242,-0.34,0
8.244,-0.35,0
8.247,-0.35,0
8.25,-0.345,0
8.253,-0.335,0
8.256,-0.345,0
8.258,-0.355,0
8.261,-0.37,0
8.264,-0.35,0
8.267,-0.345,0
8.269,-0.335,0
8.272,-0.335,0
8.275,-0.335,0
8.278,-0.355,0
8.281,-0.355,0
8.283,-0.345,0
8.286,-0.355,0
8.289,-0.395,0
8.292,-0.45,0
8.294,-0.48,0
8.297,-0.505,0
8.3,-0.525,0
8.303,-0.545,0
8.306,-0.5,0
8.308,-0.395,0
8.311,-0.255,0
8.314,-0.07,0
8.317,0.145,0
8.319,0.425,0
8.322,0.685,0
8.325,0.875,0
8.328,0.925,0
8.331,0.795,0
8.333,0.47,0
8.336,0.02,0
8.339,-0.325,0
8.342,-0.47,0
8.344,-0.485,0
8.347,-0.41,0
8.35,-0.365,0
8.353,-0.355,0
8.356,-0.365,0
8.358,-0.38,0
8.361,-0.385,0
8.364,-0.38,0
8.367,-0.37,0
8.369,-0.37,0
8.372,-0.375,0
8.375,-0.385,0
8.378,-0.395,0
8.381,-0.385,0
8.383,-0.38,0
8.386,-0.385,0
8.389,-0.375,0
8.392,-0.39,0
8.394,-0.405,0
8.397,-0.405,0
8.4,-0.39,0
8.403,-0.385,0
8.406,-0.385,0
8.408,-0.39,0
8.411,-0.41,0
8.414,-0.4,0
8.417,-0.39,0
8.419,-0.385,0
8.422,-0.385,0
8.425,-0.395,0
8.428,-0.39,0
8.431,-0.395,0
8.433,-0.38,0
8.436,-0.375,0
8.439,-0.38,0
8.442,-0.385,0
8.444,-0.4,0
8.447,-0.385,0
8.45,-0.38,0
8.453,-0.375,0
8.456,-0.38,0
8.458,-0.395,0
8.461,-0.395,0
8.464,-0.385,0
8.467,-0.375,0
8.469,-0.37,0
8.472,-0.365,0
8.475,-0.385,0
8.478,-0.395,0
8.481,-0.385,0
8.483,-0.385,0
8.486,-0.37,0
8.489,-0.375,0
8.492,-0.37,0
8.494,-0.375,0
8.497,-0.375,0
8.5,-0.37,0
8.503,-0.355,0
8.506,-0.365,0
8.508,-0.38,0
8.511,-0.375,0
8.514,-0.37,0
8.517,-0.38,0
8.519,-0.365,0
8.522,-0.37,0
8.525,-0.375,0
8.528,-0.39,0
8.531,-0.38,0
8.533,-0.375,0
8.536,-0.38,0
8.539,-0.37,0
8.542,-0.375,0
8.544,-0.38,0
8.547,-0.385,0
8.55,-0.385,0
8.553,-0.37,0
8.556,-0.375,0
8.558,-0.375,0
8.561,-0.38,0
8.564,-0.38,0
8.567,-0.38,0
8.569,-0.38,0
8.572,-0.375,0
8.575,-0.39,0
8.578,-0.395,0
8.581,-0.385,0
8.583,-0.385,0
8.586,-0.375,0
8.589,-0.375,0
8.592,-0.385,0
8.594,-0.385,0
8.597,-0.39,0
8.6,-0.37,0
8.603,-0.365,0
8.606,-0.365,0
8.608,-0.375,0
8.611,-0.385,0
8.614,-0.35,0
8.617,-0.345,0
8.619,-0.325,0
8.622,-0.325,0
8.625,-0.33,0
8.628,-0.325,0
8.631,-0.325,0
8.633,-0.315,0
8.636,-0.315,0
8.639,-0.315,0
8.642,-0.3,0
8.644,-0.3,0
8.647,-0.285,0
8.65,-0.27,0
8.653,-0.265,0
8.656,-0.26,0
8.658,-0.275,0
8.661,-0.285,0
8.664,-0.265,0
8.667,-0.255,0
8.669,-0.25,0
8.672,-0.27,0
8.675,-0.28,0
8.678,-0.285,0
8.681,-0.285,0
8.683,-0.28,0
8.686,-0.27,0
8.689,-0.27,0
8.692,-0.27,0
8.694,-0.285,0
8.697,-0.28,0
8.7,-0.275,0
8.703,-0.27,0
8.706,-0.265,0
8.708,-0.275,0
8.711,-0.29,0
8.714,-0.285,0
8.717,-0.285,0
8.719,-0.275,0
8.722,-0.27,0
8.725,-0.28,0
8.728,-0.295,0
8.731,-0.28,0
8.733,-0.27,0
8.736,-0.27,0
8.739,-0.275,0
8.742,-0.285,0
8.744,-0.3,0
8.747,-0.295,0
8.75,-0.29,0
8.753,-0.295,0
8.756,-0.3,0
8.758,-0.29,0
8.761,-0.305,0
8.764,-0.295,0
8.767,-0.29,0
8.769,-0.295,0
8.772,-0.29,0
8.775,-0.31,0
8.778,-0.32,0
8.781,-0.315,0
8.783,-0.315,0
8.786,-0.3,0
8.789,-0.305,0
8.792,-0.315,0
8.794,-0.33,0
8.797,-0.32,0
8.8,-0.305,0
8.803,-0.315,0
8.806,-0.305,0
8.808,-0.315,0
8.811,-0.325,0
8.814,-0.31,0
8.817,-0.295,0
8.819,-0.3,0
8.822,-0.305,0
8.825,-0.31,0
8.828,-0.325,0
8.831,-0.315,0
8.833,-0.315,0
8.836,-0.305,0
8.839,-0.305,0
8.842,-0.325,0
8.844,-0.32,0
8.847,-0.32,0
8.85,-0.31,0
8.853,-0.305,0
8.856,-0.32,0
8.858,-0.32,0
8.861,-0.32,0
8.864,-0.31,0
8.867,-0.305,0
8.869,-0.29,0
8.872,-0.285,0
8.875,-0.29,0
8.878,-0.305,0
8.881,-0.31,0
8.883,-0.3,0
8.886,-0.3,0
8.889,-0.31,0
8.892,-0.315,0
8.894,-0.315,0
8.897,-0.31,0
8.9,-0.295,0
8.903,-0.3,0
8.906,-0.295,0
8.908,-0.315,0
8.911,-0.31,0
8.914,-0.29,0
8.917,-0.265,0
8.919,-0.24,0
8.922,-0.255,0
8.925,-0.24,0
8.928,-0.25,0
8.931,-0.225,0
8.933,-0.225,0
8.936,-0.215,0
8.939,-0.21,0
8.942,-0.2,0
8.944,-0.195,0
8.947,-0.195,0
8.95,-0.18,0
8.953,-0.175,0
8.956,-0.18,0
8.958,-0.205,0
8.961,-0.215,0
8.964,-0.21,0
8.967,-0.21,0
8.969,-0.21,0
8.972,-0.21,0
8.975,-0.215,0
8.978,-0.225,0
8.981,-0.21,0
8.983,-0.18,0
8.986,-0.17,0
8.989,-0.185,0
8.992,-0.24,0
8.994,-0.255,0
8.997,-0.255,0
9,-0.27,0
9.003,-0.275,0
9.006,-0.285,0
9.008,-0.3,0
9.011,-0.3,0
9.014,-0.315,0
9.017,-0.305,0
9.019,-0.3,0
9.022,-0.295,0
9.025,-0.3,0
9.028,-0.315,0
9.031,-0.31,0
9.033,-0.31,0
9.036,-0.3,0
9.039,-0.3,0
9.042,-0.305,0
9.044,-0.315,0
9.047,-0.325,0
9.05,-0.32,0
9.053,-0.32,0
9.056,-0.32,0
9.058,-0.325,0
9.061,-0.34,0
9.064,-0.335,0
9.067,-0.325,0
9.069,-0.315,0
9.072,-0.32,0
9.075,-0.345,0
9.078,-0.37,0
9.081,-0.395,0
9.083,-0.425,0
9.086,-0.445,0
9.089,-0.465,0
9.092,-0.51,0
9.094,-0.53,0
9.097,-0.485,0
9.1,-0.37,0
9.103,-0.235,0
9.106,-0.09,0
9.108,0.105,0
9.111,0.375,0
9.114,0.655,0
9.117,0.82,0
9.119,0.865,0
9.122,0.735,0
9.125,0.45,0
9.128,0.06,0
9.131,-0.27,0
9.133,-0.43,0
9.136,-0.46,0
9.139,-0.415,0
9.142,-0.385,0
9.144,-0.365,0
9.147,-0.355,0
9.15,-0.355,0
9.153,-0.345,0
9.156,-0.35,0
9.158,-0.35,0
9.161,-0.36,0
9.164,-0.345,0
9.167,-0.34,0
9.169,-0.34,0
9.172,-0.335,0
9.175,-0.335,0
9.178,-0.355,0
9.181,-0.345,0
9.183,-0.34,0
9.186,-0.335,0
9.189,-0.34,0
9.192,-0.35,0
9.194,-0.365,0
9.197,-0.36,0
9.2,-0.365,0
9.203,-0.35,0
9.206,-0.345,0
9.208,-0.365,0
9.211,-0.36,0
9.214,-0.35,0
9.217,-0.355,0
9.219,-0.35,0
9.222,-0.355,0
9.225,-0.35,0
9.228,-0.36,0
9.231,-0.335,0
9.233,-0.335,0
9.236,-0.33,0
9.239,-0.34,0
9.242,-0.35,0
9.244,-0.35,0
9.247,-0.345,0
9.25,-0.335,0
9.253,-0.345,0
9.256,-0.355,0
9.258,-0.355,0
9.261,-0.37,0
9.264,-0.355,0
9.267,-0.35,0
9.269,-0.345,0
9.272,-0.365,0
9.275,-0.365,0
9.278,-0.37,0
9.281,-0.365,0
9.283,-0.355,0
9.286,-0.345,0
9.289,-0.345,0
9.292,-0.345,0
9.294,-0.34,0
9.297,-0.335,0
9.3,-0.325,0
9.303,-0.335,0
9.306,-0.345,0
9.308,-0.35,0
9.311,-0.35,0
9.314,-0.355,0
9.317,-0.355,0
9.319,-0.36,0
9.322,-0.35,0
9.325,-0.36,0
9.328,-0.365,0
9.331,-0.345,0
9.333,-0.345,0
9.336,-0.33,0
9.339,-0.35,0
9.342,-0.345,0
9.344,-0.355,0
9.347,-0.35,0
9.35,-0.34,0
9.353,-0.335,0
9.356,-0.35,0
9.358,-0.365,0
9.361,-0.38,0
9.364,-0.385,0
9.367,-0.355,0
9.369,-0.36,0
9.372,-0.355,0
9.375,-0.37,0
9.378,-0.385,0
9.381,-0.37,0
9.383,-0.37,0
9.386,-0.35,0
9.389,-0.345,0
9.392,-0.365,0
9.394,-0.365,0
9.397,-0.36,0
9.4,-0.345,0
9.403,-0.33,0
9.406,-0.33,0
9.408,-0.33,0
9.411,-0.335,0
9.414,-0.315,0
9.417,-0.31,0
9.419,-0.285,0
9.422,-0.29,0
9.425,-0.29,0
9.428,-0.3,0
9.431,-0.28,0
9.433,-0.275,0
9.436,-0.26,0
9.439,-0.26,0
9.442,-0.27,0
9.444,-0.265,0
9.447,-0.255,0
9.45,-0.25,0
9.453,-0.245,0
9.456,-0.245,0
9.458,-0.255,0
9.461,-0.265,0
9.464,-0.26,0
9.467,-0.255,0
9.469,-0.24,0
9.472,-0.25,0
9.475,-0.255,0
9.478,-0.275,0
9.481,-0.275,0
9.483,-0.265,0
9.486,-0.27,0
9.489,-0.275,0
9.492,-0.28,0
9.494,-0.29,0
9.497,-0.28,0
9.5,-0.275,0
9.503,-0.27,0
9.506,-0.27,0
9.508,-0.28,0
9.511,-0.29,0
9.514,-0.28,0
9.517,-0.285,0
9.519,-0.275,0
9.522,-0.29,0
9.525,-0.28,0
9.528,-0.29,0
9.531,-0.28,0
9.533,-0.285,0
9.536,-0.275,0
9.539,-0.28,0
9.542,-0.295,0
9.544,-0.305,0
9.547,-0.3,0
9.55,-0.3,0
9.553,-0.305,0
9.556,-0.315,0
9.558,-0.32,0
9.561,-0.31,0
9.564,-0.31,0
9.567,-0.3,0
9.569,-0.31,0
9.572,-0.31,0
9.575,-0.32,0
9.578,-0.325,0
9.581,-0.31,0
9.583,-0.32,0
9.586,-0.31,0
9.589,-0.31,0
9.592,-0.315,0
9.594,-0.325,0
9.597,-0.315,0
9.6,-0.305,0
9.603,-0.315,0
9.606,-0.31,0
9.608,-0.32,0
9.611,-0.325,0
9.614,-0.325,0
9.617,-0.32,0
9.619,-0.305,0
9.622,-0.305,0
9.625,-0.3,0
9.628,-0.315,0
9.631,-0.3,0
9.633,-0.31,0
9.636,-0.315,0
9.639,-0.305,0
9.642,-0.31,0
9.644,-0.32,0
9.647,-0.31,0
9.65,-0.3,0
9.653,-0.295,0
9.656,-0.3,0
9.658,-0.315,0
9.661,-0.325,0
9.664,-0.325,0
9.667,-0.305,0
9.669,-0.31,0
9.672,-0.29,0
9.675,-0.315,0
9.678,-0.325,0
9.681,-0.32,0
9.683,-0.29,0
9.686,-0.28,0
9.689,-0.26,0
9.692,-0.26,0
9.694,-0.265,0
9.697,-0.26,0
9.7,-0.25,0
9.703,-0.23,0
9.706,-0.22,0
9.708,-0.22,0
9.711,-0.235,0
9.714,-0.22,0
9.717,-0.205,0
9.719,-0.205,0
9.722,-0.21,0
9.725,-0.21,0
9.728,-0.23,0
9.731,-0.24,0
9.733,-0.23,0
9.736,-0.225,0
9.739,-0.235,0
9.742,-0.25,0
9.744,-0.265,0
9.747,-0.26,0
9.75,-0.245,0
9.753,-0.215,0
9.756,-0.215,0
9.758,-0.245,0
9.761,-0.28,0
9.764,-0.275,0
9.767,-0.275,0
9.769,-0.295,0
9.772,-0.31,0
9.775,-0.325,0
9.778,-0.34,0
9.781,-0.34,0
9.783,-0.325,0
9.786,-0.315,0
9.789,-0.31,0
9.792,-0.315,0
9.794,-0.33,0
9.797,-0.33,0
9.8,-0.325,0
9.803,-0.325,0
9.806,-0.335,0
9.808,-0.345,0
9.811,-0.35,0
9.814,-0.35,0
9.817,-0.35,0
9.819,-0.345,0
9.822,-0.35,0
9.825,-0.365,0
9.828,-0.36,0
9.831,-0.35,0
9.833,-0.355,0
9.836,-0.345,0
9.839,-0.345,0
9.842,-0.35,0
9.844,-0.365,0
9.847,-0.38,0
9.85,-0.405,0
9.853,-0.425,0
9.856,-0.44,0
9.858,-0.47,0
9.861,-0.52,0
9.864,-0.54,0
9.867,-0.49,0
9.869,-0.39,0
9.872,-0.26,0
9.875,-0.115,0
9.878,0.085,0
9.881,0.36,0
9.883,0.615,0
9.886,0.78,0
9.889,0.835,0
9.892,0.72,0
9.894,0.41,0
9.897,0.03,0
9.9,-0.255,0
9.903,-0.415,0
9.906,-0.47,0
9.908,-0.465,0
9.911,-0.435,0
9.914,-0.395,0
9.917,-0.375,0
9.919,-0.37,0
9.922,-0.375,0
9.925,-0.375,0
9.928,-0.39,0
9.931,-0.4,0
9.933,-0.38,0
9.936,-0.385,0
9.939,-0.385,0
9.942,-0.385,0
9.944,-0.385,0
9.947,-0.37,0
9.95,-0.37,0
9.953,-0.36,0
9.956,-0.38,0
9.958,-0.38,0
9.961,-0.385,0
9.964,-0.37,0
9.967,-0.37,0
9.969,-0.365,0
9.972,-0.375,0
9.975,-0.385,0
9.978,-0.39,0
9.981,-0.39,0
9.983,-0.385,0
9.986,-0.385,0
9.989,-0.395,0
9.992,-0.39,0
9.994,-0.4,0
9.997,-0.405,0
10,-0.39,0
10.003,-0.395,0
10.006,-0.39,0
10.008,-0.405,0
10.011,-0.405,0
10.014,-0.4,0
10.017,-0.375,0
10.019,-0.38,0
10.022,-0.39,0
10.025,-0.395,0
10.028,-0.395,0
10.031,-0.39,0
10.033,-0.39,0
10.036,-0.385,0
10.039,-0.405,0
10.042,-0.4,0
10.044,-0.405,0
10.047,-0.395,0
10.05,-0.39,0
10.053,-0.395,0
10.056,-0.39,0
10.058,-0.4,0
10.061,-0.405,0
10.064,-0.405,0
10.067,-0.39,0
10.069,-0.39,0
10.072,-0.395,0
10.075,-0.4,0
10.078,-0.4,0
10.081,-0.395,0
10.083,-0.38,0
10.086,-0.37,0
10.089,-0.38,0
10.092,-0.385,0
10.094,-0.395,0
10.097,-0.39,0
10.1,-0.38,0
10.103,-0.38,0
10.106,-0.385,0
10.108,-0.39,0
10.111,-0.39,0
10.114,-0.4,0
10.117,-0.4,0
10.119,-0.405,0
10.122,-0.415,0
10.125,-0.42,0
10.128,-0.43,0
10.131,-0.43,0
10.133,-0.425,0
10.136,-0.42,0
10.139,-0.43,0
10.142,-0.445,0
10.144,-0.465,0
10.147,-0.455,0
10.15,-0.44,0
10.153,-0.425,0
10.156,-0.435,0
10.158,-0.45,0
10.161,-0.44,0
10.164,-0.445,0
10.167,-0.425,0
10.169,-0.425,0
10.172,-0.425,0
10.175,-0.43,0
10.178,-0.43,0
10.181,-0.415,0
10.183,-0.415,0
10.186,-0.385,0
10.189,-0.375,0
10.192,-0.385,0
10.194,-0.37,0
10.197,-0.36,0
10.2,-0.35,0
10.203,-0.335,0
10.206,-0.335,0
10.208,-0.325,0
10.211,-0.32,0
10.214,-0.325,0
10.217,-0.305,0
10.219,-0.295,0
10.222,-0.3,0
10.225,-0.29,0
10.228,-0.295,0
10.231,-0.29,0
10.233,-0.29,0
10.236,-0.285,0
10.239,-0.285,0
10.242,-0.285,0
10.244,-0.29,0
10.247,-0.29,0
10.25,-0.285,0
10.253,-0.27,0
10.256,-0.27,0
10.258,-0.28,0
10.261,-0.29,0
10.264,-0.285,0
10.267,-0.275,0
10.269,-0.275,0
10.272,-0.275,0
10.275,-0.29,0
10.278,-0.305,0
10.281,-0.305,0
10.283,-0.3,0
10.286,-0.28,0
10.289,-0.29,0
10.292,-0.305,0
10.294,-0.315,0
10.297,-0.31,0
10.3,-0.295,0
10.303,-0.29,0
10.306,-0.3,0
10.308,-0.305,0
10.311,-0.305,0
10.314,-0.31,0
10.317,-0.3,0
10.319,-0.295,0
10.322,-0.305,0
10.325,-0.305,0
10.328,-0.315,0
10.331,-0.31,0
10.333,-0.31,0
10.336,-0.295,0
10.339,-0.3,0
10.342,-0.305,0
10.344,-0.31,0
10.347,-0.305,0
10.35,-0.305,0
10.353,-0.295,0
10.356,-0.3,0
10.358,-0.315,0
10.361,-0.325,0
10.364,-0.32,0
10.367,-0.32,0
10.369,-0.315,0
10.372,-0.31,0
10.375,-0.325,0
10.378,-0.335,0
10.381,-0.33,0
10.383,-0.32,0
10.386,-0.32,0
10.389,-0.31,0
10.392,-0.33,0
10.394,-0.33,0
10.397,-0.325,0
10.4,-0.31,0
10.403,-0.305,0
10.406,-0.305,0
10.408,-0.32,0
10.411,-0.33,0
10.414,-0.325,0
10.417,-0.3,0
10.419,-0.31,0
10.422,-0.305,0
10.425,-0.315,0
10.428,-0.33,0
10.431,-0.33,0
10.433,-0.33,0
10.436,-0.32,0
10.439,-0.325,0
10.442,-0.325,0
10.444,-0.335,0
10.447,-0.325,0
10.45,-0.315,0
10.453,-0.31,0
10.456,-0.315,0
10.458,-0.32,0
10.461,-0.325,0
10.464,-0.315,0
10.467,-0.31,0
10.469,-0.305,0
10.472,-0.31,0
10.475,-0.315,0
10.478,-0.32,0
10.481,-0.315,0
10.483,-0.31,0
10.486,-0.295,0
10.489,-0.295,0
10.492,-0.305,0
10.494,-0.31,0
10.497,-0.3,0
10.5,-0.28,0
10.503,-0.275,0
10.506,-0.265,0
10.508,-0.275,0
10.511,-0.275,0
10.514,-0.26,0
10.517,-0.24,0
10.519,-0.24,0
10.522,-0.235,0
10.525,-0.24,0
10.528,-0.235,0
10.531,-0.225,0
10.533,-0.215,0
10.536,-0.205,0
10.539,-0.205,0
10.542,-0.21,0
10.544,-0.215,0
10.547,-0.22,0
10.55,-0.22,0
10.553,-0.215,0
10.556,-0.22,0
10.558,-0.22,0
10.561,-0.23,0
10.564,-0.23,0
10.567,-0.24,0
10.569,-0.21,0
10.572,-0.22,0
10.575,-0.23,0
10.578,-0.255,0
10.581,-0.235,0
10.583,-0.21,0
10.586,-0.19,0
10.589,-0.205,0
10.592,-0.225,0
10.594,-0.26,0
10.597,-0.275,0
10.6,-0.28,0
10.603,-0.285,0
10.606,-0.305,0
10.608,-0.32,0
10.611,-0.315,0
10.614,-0.335,0
10.617,-0.325,0
10.619,-0.335,0
10.622,-0.32,0
10.625,-0.325,0
10.628,-0.32,0
10.631,-0.325,0
10.633,-0.325,0
10.636,-0.31,0
10.639,-0.305,0
10.642,-0.32,0
10.644,-0.32,0
10.647,-0.33,0
10.65,-0.32,0
10.653,-0.32,0
10.656,-0.33,0
10.658,-0.33,0
10.661,-0.36,0
10.664,-0.355,0
10.667,-0.33,0
10.669,-0.325,0
10.672,-0.325,0
10.675,-0.335,0
10.678,-0.35,0
10.681,-0.34,0
10.683,-0.345,0
10.686,-0.355,0
10.689,-0.385,0
10.692,-0.425,0
10.694,-0.45,0
10.697,-0.47,0
10.7,-0.485,0
10.703,-0.51,0
10.706,-0.515,0
10.708,-0.455,0
10.711,-0.325,0
10.714,-0.165,0
10.717,0.01,0
10.719,0.25,0
10.722,0.515,0
10.725,0.74,0
10.728,0.885,0
10.731,0.935,0
10.733,0.835,0
10.736,0.525,0
10.739,0.12,0
10.742,-0.23,0
10.744,-0.425,0
10.747,-0.455,0
10.75,-0.42,0
10.753,-0.38,0
10.756,-0.36,0
10.758,-0.365,0
10.761,-0.375,0
10.764,-0.38,0
10.767,-0.355,0
10.769,-0.355,0
10.772,-0.37,0
10.775,-0.375,0
10.778,-0.385,0
10.781,-0.38,0
10.783,-0.365,0
10.786,-0.37,0
10.789,-0.37,0
10.792,-0.365,0
10.794,-0.38,0
10.797,-0.37,0
10.8,-0.375,0
10.803,-0.365,0
10.806,-0.37,0
10.808,-0.38,0
10.811,-0.375,0
10.814,-0.365,0
10.817,-0.36,0
10.819,-0.36,0
10.822,-0.355,0
10.825,-0.355,0
10.828,-0.37,0
10.831,-0.365,0
10.833,-0.355,0
10.836,-0.35,0
10.839,-0.35,0
10.842,-0.35,0
10.844,-0.36,0
10.847,-0.36,0
10.85,-0.36,0
10.853,-0.35,0
10.856,-0.355,0
10.858,-0.365,0
10.861,-0.37,0
10.864,-0.36,0
10.867,-0.35,0
10.869,-0.355,0
10.872,-0.35,0
10.875,-0.355,0
10.878,-0.37,0
10.881,-0.375,0
10.883,-0.36,0
10.886,-0.35,0
10.889,-0.345,0
10.892,-0.35,0
10.894,-0.37,0
10.897,-0.37,0
10.9,-0.355,0
10.903,-0.35,0
10.906,-0.345,0
10.908,-0.36,0
10.911,-0.37,0
10.914,-0.365,0
10.917,-0.36,0
10.919,-0.35,0
10.922,-0.355,0
10.925,-0.365,0
10.928,-0.365,0
10.931,-0.37,0
10.933,-0.365,0
10.936,-0.35,0
10.939,-0.35,0
10.942,-0.36,0
10.944,-0.36,0
10.947,-0.355,0
10.95,-0.345,0
10.953,-0.35,0
10.956,-0.345,0
10.958,-0.355,0
10.961,-0.37,0
10.964,-0.365,0
10.967,-0.355,0
10.969,-0.36,0
10.972,-0.365,0
10.975,-0.365,0
10.978,-0.38,0
10.981,-0.385,0
10.983,-0.375,0
10.986,-0.37,0
10.989,-0.375,0
10.992,-0.385,0
10.994,-0.395,0
10.997,-0.375,0
11,-0.385,0
11.003,-0.38,0
11.006,-0.37,0
11.008,-0.385,0
11.011,-0.385,0
11.014,-0.38,0
11.017,-0.37,0
11.019,-0.36,0
11.022,-0.35,0
11.025,-0.335,0
11.028,-0.33,0
11.031,-0.315,0
11.033,-0.295,0
11.036,-0.29,0
11.039,-0.29,0
11.042,-0.285,0
11.044,-0.29,0
11.047,-0.28,0
11.05,-0.28,0
11.053,-0.26,0
11.056,-0.255,0
11.058,-0.27,0
11.061,-0.275,0
11.064,-0.26,0
11.067,-0.25,0
11.069,-0.245,0
11.072,-0.25,0
11.075,-0.26,0
11.078,-0.265,0
11.081,-0.245,0
11.083,-0.235,0
11.086,-0.245,0
11.089,-0.24,0
11.092,-0.25,0
11.094,-0.265,0
11.097,-0.25,0
11.1,-0.25,0
11.103,-0.25,0
11.106,-0.25,0
11.108,-0.255,0
11.111,-0.265,0
11.114,-0.26,0
11.117,-0.24,0
11.119,-0.25,0
11.122,-0.245,0
11.125,-0.25,0
11.128,-0.27,0
11.131,-0.265,0
11.133,-0.27,0
11.136,-0.265,0
11.139,-0.265,0
11.142,-0.275,0
11.144,-0.285,0
11.147,-0.275,0
11.15,-0.265,0
11.153,-0.27,0
11.156,-0.27,0
11.158,-0.28,0
11.161,-0.285,0
11.164,-0.285,0
11.167,-0.28,0
11.169,-0.285,0
11.172,-0.28,0
11.175,-0.285,0
11.178,-0.3,0
11.181,-0.29,0
11.183,-0.285,0
11.186,-0.27,0
11.189,-0.28,0
11.192,-0.295,0
11.194,-0.29,0
11.197,-0.29,0
11.2,-0.295,0
11.203,-0.29,0
11.206,-0.285,0
11.208,-0.305,0
11.211,-0.315,0
11.214,-0.31,0
11.217,-0.31,0
11.219,-0.29,0
11.222,-0.295,0
11.225,-0.31,0
11.228,-0.32,0
11.231,-0.315,0
11.233,-0.31,0
11.236,-0.3,0
11.239,-0.3,0
11.242,-0.315,0
11.244,-0.32,0
11.247,-0.315,0
11.25,-0.32,0
11.253,-0.29,0
11.256,-0.3,0
11.258,-0.3,0
11.261,-0.315,0
11.264,-0.31,0
11.267,-0.3,0
11.269,-0.3,0
11.272,-0.29,0
11.275,-0.31,0
11.278,-0.325,0
11.281,-0.315,0
11.283,-0.305,0
11.286,-0.305,0
11.289,-0.305,0
11.292,-0.315,0
11.294,-0.325,0
11.297,-0.32,0
11.3,-0.31,0
11.303,-0.3,0
11.306,-0.295,0
11.308,-0.315,0
11.311,-0.32,0
11.314,-0.305,0
11.317,-0.3,0
11.319,-0.29,0
11.322,-0.295,0
11.325,-0.295,0
11.328,-0.31,0
11.331,-0.295,0
11.333,-0.295,0
11.336,-0.285,0
11.339,-0.295,0
11.342,-0.295,0
11.344,-0.31,0
11.347,-0.3,0
11.35,-0.285,0
11.353,-0.28,0
11.356,-0.275,0
11.358,-0.28,0
11.361,-0.265,0
11.364,-0.245,0
11.367,-0.23,0
11.369,-0.24,0
11.372,-0.24,0
11.375,-0.24,0
11.378,-0.245,0
11.381,-0.22,0
11.383,-0.22,0
11.386,-0.215,0
11.389,-0.2,0
11.392,-0.2,0
11.394,-0.21,0
11.397,-0.205,0
11.4,-0.195,0
11.403,-0.205,0
11.406,-0.21,0
11.408,-0.215,0
11.411,-0.225,0
11.414,-0.225,0
11.417,-0.2,0
11.419,-0.2,0
11.422,-0.21,0
11.425,-0.225,0
11.428,-0.22,0
11.431,-0.195,0
11.433,-0.18,0
11.436,-0.175,0
11.439,-0.205,0
11.442,-0.245,0
11.444,-0.265,0
11.447,-0.275,0
11.45,-0.28,0
11.453,-0.285,0
11.456,-0.3,0
11.458,-0.31,0
11.461,-0.325,0
11.464,-0.32,0
11.467,-0.325,0
11.469,-0.31,0
11.472,-0.325,0
11.475,-0.33,0
11.478,-0.34,0
11.481,-0.335,0
11.483,-0.33,0
11.486,-0.325,0
11.489,-0.32,0
11.492,-0.34,0
11.494,-0.345,0
11.497,-0.34,0
11.5,-0.33,0
11.503,-0.335,0
11.506,-0.33,0
11.508,-0.34,0
11.511,-0.34,0
11.514,-0.335,0
11.517,-0.335,0
11.519,-0.33,0
11.522,-0.335,0
11.525,-0.345,0
11.528,-0.375,0
11.531,-0.395,0
11.533,-0.43,0
11.536,-0.44,0
11.539,-0.45,0
11.542,-0.45,0
11.544,-0.475,0
11.547,-0.48,0
11.55,-0.51,0
11.553,-0.55,0
11.556,-0.575,0
11.558,-0.545,0
11.561,-0.49,0
11.564,-0.375,0
11.567,-0.25,0
11.569,-0.12,0
11.572,0.06,0
11.575,0.285,0
11.578,0.525,0
11.581,0.74,0
11.583,0.86,0
11.586,0.89,0
11.589,0.73,0
11.592,0.425,0
11.594,0.015,0
11.597,-0.285,0
11.6,-0.435,0
11.603,-0.45,0
11.606,-0.435,0
11.608,-0.385,0
11.611,-0.38,0
11.614,-0.37,0
11.617,-0.37,0
11.619,-0.37,0
11.622,-0.36,0
11.625,-0.36,0
11.628,-0.37,0
11.631,-0.385,0
11.633,-0.365,0
11.636,-0.36,0
11.639,-0.365,0
11.642,-0.365,0
11.644,-0.375,0
11.647,-0.385,0
11.65,-0.36,0
11.653,-0.365,0
11.656,-0.355,0
11.658,-0.375,0
11.661,-0.38,0
11.664,-0.375,0
11.667,-0.355,0
11.669,-0.355,0
11.672,-0.36,0
11.675,-0.365,0
11.678,-0.38,0
11.681,-0.37,0
11.683,-0.355,0
11.686,-0.35,0
11.689,-0.355,0
11.692,-0.365,0
11.694,-0.38,0
11.697,-0.365,0
11.7,-0.355,0
11.703,-0.355,0
11.706,-0.365,0
11.708,-0.385,0
11.711,-0.39,0
11.714,-0.375,0
11.717,-0.355,0
11.719,-0.365,0
11.722,-0.36,0
11.725,-0.355,0
11.728,-0.365,0
11.731,-0.365,0
11.733,-0.355,0
11.736,-0.345,0
11.739,-0.345,0
11.742,-0.365,0
11.744,-0.36,0
11.747,-0.375,0
11.75,-0.355,0
11.753,-0.36,0
11.756,-0.365,0
11.758,-0.365,0
11.761,-0.37,0
11.764,-0.36,0
11.767,-0.355,0
11.769,-0.36,0
11.772,-0.365,0
11.775,-0.385,0
11.778,-0.38,0
11.781,-0.365,0
11.783,-0.355,0
11.786,-0.335,0
11.789,-0.36,0
11.792,-0.36,0
11.794,-0.385,0
11.797,-0.38,0
11.8,-0.375,0
11.803,-0.36,0
11.806,-0.36,0
11.808,-0.365,0
11.811,-0.375,0
11.814,-0.365,0
11.817,-0.355,0
11.819,-0.36,0
11.822,-0.35,0
11.825,-0.36,0
11.828,-0.37,0
11.831,-0.37,0
11.833,-0.365,0
11.836,-0.37,0
11.839,-0.38,0
11.842,-0.39,0
11.844,-0.385,0
11.847,-0.38,0
11.85,-0.37,0
11.853,-0.37,0
11.856,-0.365,0
11.858,-0.365,0
11.861,-0.39,0
11.864,-0.375,0
11.867,-0.37,0
11.869,-0.355,0
11.872,-0.365,0
11.875,-0.36,0
11.878,-0.37,0
11.881,-0.35,0
11.883,-0.34,0
11.886,-0.325,0
11.889,-0.32,0
11.892,-0.315,0
11.894,-0.325,0
11.897,-0.31,0
11.9,-0.295,0
11.903,-0.285,0
11.906,-0.29,0
11.908,-0.29,0
11.911,-0.275,0
11.914,-0.27,0
11.917,-0.265,0
11.919,-0.26,0
11.922,-0.26,0
11.925,-0.275,0
11.928,-0.275,0
11.931,-0.285,0
11.933,-0.26,0
11.936,-0.26,0
11.939,-0.265,0
11.942,-0.27,0
11.944,-0.28,0
11.947,-0.275,0
11.95,-0.255,0
11.953,-0.255,0
11.956,-0.245,0
11.958,-0.255,0
11.961,-0.26,0
11.964,-0.255,0
11.967,-0.255,0
11.969,-0.26,0
11.972,-0.265,0
11.975,-0.28,0
11.978,-0.295,0
11.981,-0.29,0
11.983,-0.275,0
11.986,-0.28,0
11.989,-0.28,0
11.992,-0.28,0
11.994,-0.285,0
11.997,-0.285,0
12,-0.28,0
12.003,-0.27,0
12.006,-0.285,0
12.008,-0.3,0
12.011,-0.31,0
12.014,-0.3,0
12.017,-0.29,0
12.019,-0.28,0
12.022,-0.3,0
12.025,-0.29,0
12.028,-0.31,0
12.031,-0.3,0
12.033,-0.295,0
12.036,-0.29,0
12.039,-0.285,0
12.042,-0.295,0
12.044,-0.325,0
12.047,-0.315,0
12.05,-0.31,0
12.053,-0.305,0
12.056,-0.3,0
12.058,-0.315,0
12.061,-0.33,0
12.064,-0.32,0
12.067,-0.32,0
12.069,-0.315,0
12.072,-0.32,0
12.075,-0.325,0
12.078,-0.335,0
12.081,-0.33,0
12.083,-0.325,0
12.086,-0.31,0
12.089,-0.315,0
12.092,-0.315,0
12.094,-0.335,0
12.097,-0.32,0
12.1,-0.31,0
12.103,-0.315,0
12.106,-0.31,0
12.108,-0.32,0
12.111,-0.335,0
12.114,-0.325,0
12.117,-0.325,0
12.119,-0.315,0
12.122,-0.31,0
12.125,-0.32,0
12.128,-0.33,0
12.131,-0.32,0
12.133,-0.32,0
12.136,-0.31,0
12.139,-0.33,0
12.142,-0.33,0
12.144,-0.345,0
12.147,-0.34,0
12.15,-0.33,0
12.153,-0.32,0
12.156,-0.315,0
12.158,-0.335,0
12.161,-0.335,0
12.164,-0.33,0
12.167,-0.31,0
12.169,-0.31,0
12.172,-0.315,0
12.175,-0.33,0
12.178,-0.32,0
12.181,-0.315,0
12.183,-0.3,0
12.186,-0.285,0
12.189,-0.28,0
12.192,-0.265,0
12.194,-0.26,0
12.197,-0.265,0
12.2,-0.26,0
12.203,-0.255,0
12.206,-0.26,0
12.208,-0.25,0
12.211,-0.255,0
12.214,-0.24,0
12.217,-0.23,0
12.219,-0.205,0
12.222,-0.21,0
12.225,-0.225,0
12.228,-0.235,0
12.231,-0.225,0
12.233,-0.225,0
12.236,-0.23,0
12.239,-0.225,0
12.242,-0.24,0
12.244,-0.24,0
12.247,-0.23,0
12.25,-0.235,0
12.253,-0.25,0
12.256,-0.25,0
12.258,-0.255,0
12.261,-0.235,0
12.264,-0.22,0
12.267,-0.205,0
12.269,-0.215,0
12.272,-0.24,0
12.275,-0.265,0
12.278,-0.28,0
12.281,-0.28,0
12.283,-0.27,0
12.286,-0.27,0
12.289,-0.29,0
12.292,-0.32,0
12.294,-0.335,0
12.297,-0.34,0
12.3,-0.33,0
12.303,-0.33,0
12.306,-0.335,0
12.308,-0.35,0
12.311,-0.36,0
12.314,-0.35,0
12.317,-0.35,0
12.319,-0.345,0
12.322,-0.35,0
12.325,-0.355,0
12.328,-0.365,0
12.331,-0.36,0
12.333,-0.355,0
12.336,-0.35,0
12.339,-0.34,0
12.342,-0.36,0
12.344,-0.37,0
12.347,-0.37,0
12.35,-0.355,0
12.353,-0.345,0
12.356,-0.35,0
12.358,-0.37,0
12.361,-0.385,0
12.364,-0.41,0
12.367,-0.44,0
12.369,-0.46,0
12.372,-0.49,0
12.375,-0.54,0
12.378,-0.565,0
12.381,-0.55,0
12.383,-0.485,0
12.386,-0.365,0
12.389,-0.255,0
12.392,-0.125,0
12.394,0.09,0
12.397,0.36,0
12.4,0.6,0
12.403,0.75,0
12.406,0.795,0
12.408,0.7,0
12.411,0.44,0
12.414,0.095,0
12.417,-0.185,0
12.419,-0.37,0
12.422,-0.47,0
12.425,-0.49,0
12.428,-0.47,0
12.431,-0.44,0
12.433,-0.425,0
12.436,-0.41,0
12.439,-0.41,0
12.442,-0.41,0
12.444,-0.42,0
12.447,-0.4,0
12.45,-0.395,0
12.453,-0.405,0
12.456,-0.41,0
12.458,-0.405,0
12.461,-0.42,0
12.464,-0.395,0
12.467,-0.395,0
12.469,-0.39,0
12.472,-0.395,0
12.475,-0.395,0
12.478,-0.41,0
12.481,-0.4,0
12.483,-0.4,0
12.486,-0.41,0
12.489,-0.4,0
12.492,-0.405,0
12.494,-0.41,0
12.497,-0.41,0
12.5,-0.4,0
12.503,-0.39,0
12.506,-0.39,0
12.508,-0.4,0
12.511,-0.4,0
12.514,-0.395,0
12.517,-0.39,0
12.519,-0.385,0
12.522,-0.39,0
12.525,-0.41,0
12.528,-0.41,0
12.531,-0.41,0
12.533,-0.415,0
12.536,-0.41,0
12.539,-0.405,0
12.542,-0.42,0
12.544,-0.42,0
12.547,-0.42,0
12.55,-0.415,0
12.553,-0.41,0
12.556,-0.415,0
12.558,-0.425,0
12.561,-0.425,0
12.564,-0.42,0
12.567,-0.425,0
12.569,-0.42,0
12.572,-0.41,0
12.575,-0.41,0
12.578,-0.415,0
12.581,-0.41,0
12.583,-0.41,0
12.586,-0.4,0
12.589,-0.405,0
12.592,-0.405,0
12.594,-0.425,0
12.597,-0.42,0
12.6,-0.41,0
12.603,-0.4,0
12.606,-0.405,0
12.608,-0.415,0
12.611,-0.42,0
12.614,-0.41,0
12.617,-0.41,0
12.619,-0.4,0
12.622,-0.41,0
12.625,-0.415,0
12.628,-0.42,0
12.631,-0.41,0
12.633,-0.4,0
12.636,-0.39,0
12.639,-0.4,0
12.642,-0.415,0
12.644,-0.42,0
12.647,-0.415,0
12.65,-0.415,0
12.653,-0.4,0
12.656,-0.415,0
12.658,-0.43,0
12.661,-0.45,0
12.664,-0.44,0
12.667,-0.44,0
12.669,-0.435,0
12.672,-0.435,0
12.675,-0.44,0
12.678,-0.45,0
12.681,-0.435,0
12.683,-0.44,0
12.686,-0.43,0
12.689,-0.44,0
12.692,-0.445,0
12.694,-0.445,0
12.697,-0.44,0
12.7,-0.435,0
12.703,-0.42,0
12.706,-0.415,0
12.708,-0.41,0
12.711,-0.405,0
12.714,-0.38,0
12.717,-0.375,0
12.719,-0.37,0
12.722,-0.37,0
12.725,-0.37,0
12.728,-0.36,0
12.731,-0.355,0
12.733,-0.325,0
12.736,-0.305,0
12.739,-0.31,0
12.742,-0.32,0
12.744,-0.325,0
12.747,-0.325,0
12.75,-0.315,0
12.753,-0.3,0
12.756,-0.305,0
12.758,-0.32,0
12.761,-0.33,0
12.764,-0.33,0
12.767,-0.31,0
12.769,-0.31,0
12.772,-0.31,0
12.775,-0.305,0
12.778,-0.31,0
12.781,-0.32,0
12.783,-0.305,0
12.786,-0.3,0
12.789,-0.3,0
12.792,-0.305,0
12.794,-0.32,0
12.797,-0.32,0
12.8,-0.315,0
12.803,-0.315,0
12.806,-0.31,0
12.808,-0.33,0
12.811,-0.335,0
12.814,-0.335,0
12.817,-0.32,0
12.819,-0.315,0
12.822,-0.315,0
12.825,-0.325,0
12.828,-0.33,0
12.831,-0.335,0
12.833,-0.32,0
12.836,-0.3,0
12.839,-0.3,0
12.842,-0.32,0
12.844,-0.32,0
12.847,-0.33,0
12.85,-0.32,0
12.853,-0.32,0
12.856,-0.325,0
12.858,-0.34,0
12.861,-0.355,0
12.864,-0.345,0
12.867,-0.35,0
12.869,-0.345,0
12.872,-0.345,0
12.875,-0.36,0
12.878,-0.36,0
12.881,-0.345,0
12.883,-0.34,0
12.886,-0.34,0
12.889,-0.355,0
12.892,-0.35,0
12.894,-0.35,0
12.897,-0.355,0
12.9,-0.34,0
12.903,-0.335,0
12.906,-0.34,0
12.908,-0.35,0
12.911,-0.355,0
12.914,-0.355,0
12.917,-0.355,0
12.919,-0.345,0
12.922,-0.345,0
12.925,-0.35,0
12.928,-0.36,0
12.931,-0.365,0
12.933,-0.365,0
12.936,-0.35,0
12.939,-0.35,0
12.942,-0.36,0
12.944,-0.37,0
12.947,-0.36,0
12.95,-0.35,0
12.953,-0.335,0
12.956,-0.35,0
12.958,-0.35,0
12.961,-0.345,0
12.964,-0.34,0
12.967,-0.34,0
12.969,-0.34,0
12.972,-0.34,0
12.975,-0.345,0
12.978,-0.35,0
12.981,-0.36,0
12.983,-0.35,0
12.986,-0.335,0
12.989,-0.345,0
12.992,-0.35,0
12.994,-0.35,0
12.997,-0.355,0
13,-0.34,0
13.003,-0.335,0
13.006,-0.33,0
13.008,-0.34,0
13.011,-0.355,0
13.014,-0.355,0
13.017,-0.33,0
13.019,-0.315,0
13.022,-0.315,0
13.025,-0.315,0
13.028,-0.32,0
13.031,-0.3,0
13.033,-0.3,0
13.036,-0.28,0
13.039,-0.265,0
13.042,-0.28,0
13.044,-0.285,0
13.047,-0.265,0
13.05,-0.235,0
13.053,-0.23,0
13.056,-0.23,0
13.058,-0.245,0
13.061,-0.255,0
13.064,-0.25,0
13.067,-0.245,0
13.069,-0.25,0
13.072,-0.255,0
13.075,-0.265,0
13.078,-0.27,0
13.081,-0.29,0
13.083,-0.28,0
13.086,-0.275,0
13.089,-0.26,0
13.092,-0.255,0
13.094,-0.26,0
13.097,-0.275,0
13.1,-0.295,0
13.103,-0.3,0
13.106,-0.305,0
13.108,-0.335,0
13.111,-0.355,0
13.114,-0.35,0
13.117,-0.35,0
13.119,-0.35,0
13.122,-0.355,0
13.125,-0.37,0
13.128,-0.37,0
13.131,-0.36,0
13.133,-0.365,0
13.136,-0.355,0
13.139,-0.365,0
13.142,-0.375,0
13.144,-0.385,0
13.147,-0.38,0
13.15,-0.375,0
13.153,-0.355,0
13.156,-0.37,0
13.158,-0.385,0
13.161,-0.39,0
13.164,-0.39,0
13.167,-0.37,0
13.169,-0.36,0
13.172,-0.37,0
13.175,-0.38,0
13.178,-0.385,0
13.181,-0.38,0
13.183,-0.375,0
13.186,-0.37,0
13.189,-0.38,0
13.192,-0.405,0
13.194,-0.445,0
13.197,-0.465,0
13.2,-0.48,0
13.203,-0.485,0
13.206,-0.525,0
13.208,-0.555,0
13.211,-0.535,0
13.214,-0.45,0
13.217,-0.325,0
13.219,-0.185,0
13.222,-0.025,0
13.225,0.185,0
13.228,0.43,0
13.231,0.66,0
13.233,0.815,0
13.236,0.85,0
13.239,0.75,0
13.242,0.485,0
13.244,0.11,0
13.247,-0.21,0
13.25,-0.39,0
13.253,-0.46,0
13.256,-0.485,0
13.258,-0.47,0
13.261,-0.45,0
13.264,-0.425,0
13.267,-0.415,0
13.269,-0.405,0
13.272,-0.415,0
13.275,-0.415,0
13.278,-0.42,0
13.281,-0.4,0
13.283,-0.395,0
13.286,-0.385,0
13.289,-0.395,0
13.292,-0.4,0
13.294,-0.42,0
13.297,-0.41,0
13.3,-0.4,0
13.303,-0.4,0
13.306,-0.405,0
13.308,-0.405,0
13.311,-0.435,0
13.314,-0.42,0
13.317,-0.41,0
13.319,-0.405,0
13.322,-0.415,0
13.325,-0.43,0
13.328,-0.44,0
13.331,-0.435,0
13.333,-0.415,0
13.336,-0.42,0
13.339,-0.43,0
13.342,-0.415,0
13.344,-0.43,0
13.347,-0.425,0
13.35,-0.42,0
13.353,-0.42,0
13.356,-0.415,0
13.358,-0.425,0
13.361,-0.425,0
13.364,-0.42,0
13.367,-0.41,0
13.369,-0.41,0
13.372,-0.41,0
13.375,-0.42,0
13.378,-0.43,0
13.381,-0.42,0
13.383,-0.415,0
13.386,-0.395,0
13.389,-0.405,0
13.392,-0.415,0
13.394,-0.43,0
13.397,-0.42,0
13.4,-0.42,0
13.403,-0.415,0
13.406,-0.42,0
13.408,-0.425,0
13.411,-0.44,0
13.414,-0.43,0
13.417,-0.425,0
13.419,-0.415,0
13.422,-0.42,0
13.425,-0.425,0
13.428,-0.44,0
13.431,-0.43,0
13.433,-0.43,0
13.436,-0.425,0
13.439,-0.42,0
13.442,-0.415,0
13.444,-0.425,0
13.447,-0.43,0
13.45,-0.425,0
13.453,-0.415,0
13.456,-0.405,0
13.458,-0.405,0
13.461,-0.425,0
13.464,-0.415,0
13.467,-0.42,0
13.469,-0.42,0
13.472,-0.42,0
13.475,-0.435,0
13.478,-0.435,0
13.481,-0.44,0
13.483,-0.42,0
13.486,-0.43,0
13.489,-0.45,0
13.492,-0.455,0
13.494,-0.465,0
13.497,-0.465,0
13.5,-0.465,0
13.503,-0.465,0
13.506,-0.465,0
13.508,-0.47,0
13.511,-0.49,0
13.514,-0.485,0
13.517,-0.46,0
13.519,-0.455,0
13.522,-0.46,0
13.525,-0.455,0
13.528,-0.455,0
13.531,-0.44,0
13.533,-0.425,0
13.536,-0.415,0
13.539,-0.4,0
13.542,-0.405,0
13.544,-0.4,0
13.547,-0.385,0
13.55,-0.365,0
13.553,-0.365,0
13.556,-0.36,0
13.558,-0.37,0
13.561,-0.375,0
13.564,-0.355,0
13.567,-0.34,0
13.569,-0.33,0
13.572,-0.33,0
13.575,-0.33,0
13.578,-0.34,0
13.581,-0.335,0
13.583,-0.32,0
13.586,-0.305,0
13.589,-0.315,0
13.592,-0.32,0
13.594,-0.32,0
13.597,-0.32,0
13.6,-0.315,0
13.603,-0.31,0
13.606,-0.31,0
13.608,-0.315,0
13.611,-0.33,0
13.614,-0.32,0
13.617,-0.32,0
13.619,-0.31,0
13.622,-0.32,0
13.625,-0.33,0
13.628,-0.34,0
13.631,-0.33,0
13.633,-0.325,0
13.636,-0.325,0
13.639,-0.32,0
13.642,-0.34,0
13.644,-0.35,0
13.647,-0.34,0
13.65,-0.32,0
13.653,-0.315,0
13.656,-0.325,0
13.658,-0.34,0
13.661,-0.345,0
13.664,-0.345,0
13.667,-0.34,0
13.669,-0.33,0
13.672,-0.335,0
13.675,-0.345,0
13.678,-0.36,0
13.681,-0.355,0
13.683,-0.34,0
13.686,-0.33,0
13.689,-0.335,0
13.692,-0.345,0
13.694,-0.365,0
13.697,-0.37,0
13.7,-0.35,0
13.703,-0.34,0
13.706,-0.335,0
13.708,-0.36,0
13.711,-0.355,0
13.714,-0.34,0
13.717,-0.335,0
13.719,-0.335,0
13.722,-0.32,0
13.725,-0.335,0
13.728,-0.355,0
13.731,-0.35,0
13.733,-0.345,0
13.736,-0.34,0
13.739,-0.335,0
13.742,-0.35,0
13.744,-0.37,0
13.747,-0.36,0
13.75,-0.355,0
13.753,-0.35,0
13.756,-0.345,0
13.758,-0.365,0
13.761,-0.36,0
13.764,-0.36,0
13.767,-0.35,0
13.769,-0.345,0
13.772,-0.355,0
13.775,-0.355,0
13.778,-0.365,0
13.781,-0.36,0
13.783,-0.345,0
13.786,-0.345,0
13.789,-0.35,0
13.792,-0.355,0
13.794,-0.36,0
13.797,-0.355,0
13.8,-0.35,0
13.803,-0.335,0
13.806,-0.335,0
13.808,-0.355,0
13.811,-0.345,0
13.814,-0.34,0
13.817,-0.33,0
13.819,-0.34,0
13.822,-0.345,0
13.825,-0.35,0
13.828,-0.355,0
13.831,-0.35,0
13.833,-0.335,0
13.836,-0.33,0
13.839,-0.33,0
13.842,-0.33,0
13.844,-0.33,0
13.847,-0.305,0
13.85,-0.285,0
13.853,-0.275,0
13.856,-0.28,0
13.858,-0.285,0
13.861,-0.29,0
13.864,-0.275,0
13.867,-0.26,0
13.869,-0.245,0
13.872,-0.24,0
13.875,-0.24,0
13.878,-0.24,0
13.881,-0.235,0
13.883,-0.225,0
13.886,-0.22,0
13.889,-0.23,0
13.892,-0.24,0
13.894,-0.255,0
13.897,-0.255,0
13.9,-0.24,0
13.903,-0.24,0
13.906,-0.25,0
13.908,-0.27,0
13.911,-0.27,0
13.914,-0.24,0
13.917,-0.23,0
13.919,-0.225,0
13.922,-0.265,0
13.925,-0.295,0
13.928,-0.305,0
13.931,-0.325,0
13.933,-0.315,0
13.936,-0.325,0
13.939,-0.33,0
13.942,-0.345,0
13.944,-0.36,0
13.947,-0.365,0
13.95,-0.355,0
13.953,-0.345,0
13.956,-0.34,0
13.958,-0.335,0
13.961,-0.36,0
13.964,-0.355,0
13.967,-0.345,0
13.969,-0.335,0
13.972,-0.355,0
13.975,-0.35,0
13.978,-0.375,0
13.981,-0.375,0
13.983,-0.365,0
13.986,-0.365,0
13.989,-0.35,0
13.992,-0.37,0
13.994,-0.38,0
13.997,-0.365,0
14,-0.37,0
14.003,-0.355,0
14.006,-0.37,0
14.008,-0.38,0
14.011,-0.385,0
14.014,-0.385,0
14.017,-0.4,0
14.019,-0.43,0
14.022,-0.465,0
14.025,-0.485,0
14.028,-0.52,0
14.031,-0.555,0
14.033,-0.525,0
14.036,-0.435,0
14.039,-0.305,0
14.042,-0.155,0
14.044,0.01,0
14.047,0.26,0
14.05,0.535,0
14.053,0.76,0
14.056,0.89,0
14.058,0.905,0
14.061,0.705,0
14.064,0.36,0
14.067,-0.03,0
14.069,-0.32,0
14.072,-0.455,0
14.075,-0.475,0
14.078,-0.44,0
14.081,-0.395,0
14.083,-0.38,0
14.086,-0.38,0
14.089,-0.385,0
14.092,-0.395,0
14.094,-0.4,0
14.097,-0.405,0
14.1,-0.395,0
14.103,-0.41,0
14.106,-0.39,0
14.108,-0.395,0
14.111,-0.405,0
14.114,-0.405,0
14.117,-0.395,0
14.119,-0.385,0
14.122,-0.385,0
14.125,-0.405,0
14.128,-0.405,0
14.131,-0.4,0
14.133,-0.385,0
14.136,-0.38,0
14.139,-0.385,0
14.142,-0.405,0
14.144,-0.41,0
14.147,-0.4,0
14.15,-0.395,0
14.153,-0.385,0
14.156,-0.395,0
14.158,-0.41,0
14.161,-0.405,0
14.164,-0.405,0
14.167,-0.395,0
14.169,-0.39,0
14.172,-0.395,0
14.175,-0.395,0
14.178,-0.405,0
14.181,-0.41,0
14.183,-0.4,0
14.186,-0.385,0
14.189,-0.395,0
14.192,-0.4,0
14.194,-0.395,0
14.197,-0.385,0
14.2,-0.385,0
14.203,-0.375,0
14.206,-0.375,0
14.208,-0.38,0
14.211,-0.395,0
14.214,-0.385,0
14.217,-0.39,0
14.219,-0.385,0
14.222,-0.38,0
14.225,-0.39,0
14.228,-0.4,0
14.231,-0.4,0
14.233,-0.39,0
14.236,-0.365,0
14.239,-0.375,0
14.242,-0.385,0
14.244,-0.4,0
14.247,-0.4,0
14.25,-0.39,0
14.253,-0.38,0
14.256,-0.375,0
14.258,-0.385,0
14.261,-0.395,0
14.264,-0.38,0
14.267,-0.37,0
14.269,-0.365,0
14.272,-0.365,0
14.275,-0.375,0
14.278,-0.385,0
14.281,-0.375,0
14.283,-0.375,0
14.286,-0.365,0
14.289,-0.37,0
14.292,-0.375,0
14.294,-0.4,0
14.297,-0.395,0
14.3,-0.405,0
14.303,-0.37,0
14.306,-0.385,0
14.308,-0.4,0
14.311,-0.41,0
14.314,-0.4,0
14.317,-0.395,0
14.319,-0.375,0
14.322,-0.38,0
14.325,-0.385,0
14.328,-0.405,0
14.331,-0.385,0
14.333,-0.375,0
14.336,-0.37,0
14.339,-0.365,0
14.342,-0.365,0
14.344,-0.35,0
14.347,-0.355,0
14.35,-0.32,0
14.353,-0.31,0
14.356,-0.31,0
14.358,-0.305,0
14.361,-0.31,0
14.364,-0.29,0
14.367,-0.28,0
14.369,-0.28,0
14.372,-0.27,0
14.375,-0.28,0
14.378,-0.285,0
14.381,-0.28,0
14.383,-0.285,0
14.386,-0.265,0
14.389,-0.27,0
14.392,-0.275,0
14.394,-0.29,0
14.397,-0.29,0
14.4,-0.275,0
14.403,-0.275,0
14.406,-0.27,0
14.408,-0.275,0
14.411,-0.29,0
14.414,-0.285,0
14.417,-0.285,0
14.419,-0.26,0
14.422,-0.26,0
14.425,-0.275,0
14.428,-0.285,0
14.431,-0.275,0
14.433,-0.265,0
14.436,-0.27,0
14.439,-0.28,0
14.442,-0.29,0
14.444,-0.295,0
14.447,-0.3,0
14.45,-0.28,0
14.453,-0.28,0
14.456,-0.275,0
14.458,-0.29,0
14.461,-0.3,0
14.464,-0.305,0
14.467,-0.285,0
14.469,-0.285,0
14.472,-0.285,0
14.475,-0.295,0
14.478,-0.3,0
14.481,-0.3,0
14.483,-0.295,0
14.486,-0.28,0
14.489,-0.295,0
14.492,-0.29,0
14.494,-0.305,0
14.497,-0.305,0
14.5,-0.3,0
14.503,-0.285,0
14.506,-0.285,0
14.508,-0.31,0
14.511,-0.315,0
14.514,-0.305,0
14.517,-0.305,0
14.519,-0.295,0
14.522,-0.3,0
14.525,-0.32,0
14.528,-0.335,0
14.531,-0.32,0
14.533,-0.32,0
14.536,-0.31,0
14.539,-0.315,0
14.542,-0.31,0
14.544,-0.33,0
14.547,-0.32,0
14.55,-0.31,0
14.553,-0.305,0
14.556,-0.305,0
14.558,-0.315,0
14.561,-0.315,0
14.564,-0.315,0
14.567,-0.305,0
14.569,-0.305,0
14.572,-0.3,0
14.575,-0.31,0
14.578,-0.31,0
14.581,-0.31,0
14.583,-0.31,0
14.586,-0.295,0
14.589,-0.3,0
14.592,-0.325,0
14.594,-0.325,0
14.597,-0.33,0
14.6,-0.32,0
14.603,-0.31,0
14.606,-0.305,0
14.608,-0.315,0
14.611,-0.33,0
14.614,-0.32,0
14.617,-0.31,0
14.619,-0.305,0
14.622,-0.3,0
14.625,-0.295,0
14.628,-0.32,0
14.631,-0.31,0
14.633,-0.3,0
14.636,-0.275,0
14.639,-0.27,0
14.642,-0.26,0
14.644,-0.25,0
14.647,-0.235,0
14.65,-0.23,0
14.653,-0.225,0
14.656,-0.23,0
14.658,-0.23,0
14.661,-0.24,0
14.664,-0.23,0
14.667,-0.225,0
14.669,-0.205,0
14.672,-0.205,0
14.675,-0.2,0
14.678,-0.21,0
14.681,-0.195,0
14.683,-0.2,0
14.686,-0.19,0
14.689,-0.2,0
14.692,-0.21,0
14.694,-0.225,0
14.697,-0.225,0
14.7,-0.22,0
14.703,-0.22,0
14.706,-0.22,0
14.708,-0.23,0
14.711,-0.25,0
14.714,-0.245,0
14.717,-0.23,0
14.719,-0.205,0
14.722,-0.185,0
14.725,-0.195,0
14.728,-0.225,0
14.731,-0.25,0
14.733,-0.255,0
14.736,-0.265,0
14.739,-0.275,0
14.742,-0.305,0
14.744,-0.32,0
14.747,-0.325,0
14.75,-0.325,0
14.753,-0.33,0
14.756,-0.33,0
14.758,-0.325,0
14.761,-0.335,0
14.764,-0.34,0
14.767,-0.335,0
14.769,-0.32,0
14.772,-0.335,0
14.775,-0.345,0
14.778,-0.355,0
14.781,-0.35,0
14.783,-0.355,0
14.786,-0.35,0
14.789,-0.345,0
14.792,-0.34,0
14.794,-0.355,0
14.797,-0.35,0
14.8,-0.34,0
14.803,-0.34,0
14.806,-0.34,0
14.808,-0.355,0
14.811,-0.4,0
14.814,-0.435,0
14.817,-0.455,0
14.819,-0.47,0
14.822,-0.5,0
14.825,-0.54,0
14.828,-0.545,0
14.831,-0.465,0
14.833,-0.355,0
14.836,-0.21,0
14.839,-0.035,0
14.842,0.185,0
14.844,0.435,0
14.847,0.675,0
14.85,0.82,0
14.853,0.825,0
14.856,0.64,0
14.858,0.32,0
14.861,-0.07,0
14.864,-0.34,0
14.867,-0.445,0
14.869,-0.445,0
14.872,-0.41,0
14.875,-0.38,0
14.878,-0.375,0
14.881,-0.375,0
14.883,-0.37,0
14.886,-0.365,0
14.889,-0.36,0
14.892,-0.37,0
14.894,-0.375,0
14.897,-0.37,0
14.9,-0.36,0
14.903,-0.35,0
14.906,-0.355,0
14.908,-0.365,0
14.911,-0.38,0
14.914,-0.38,0
14.917,-0.37,0
14.919,-0.365,0
14.922,-0.365,0
14.925,-0.38,0
14.928,-0.385,0
14.931,-0.39,0
14.933,-0.38,0
14.936,-0.375,0
14.939,-0.375,0
14.942,-0.38,0
14.944,-0.39,0
14.947,-0.38,0
14.95,-0.375,0
14.953,-0.37,0
14.956,-0.365,0
14.958,-0.375,0
14.961,-0.385,0
14.964,-0.365,0
14.967,-0.36,0
14.969,-0.35,0
14.972,-0.355,0
14.975,-0.355,0
14.978,-0.37,0
14.981,-0.365,0
14.983,-0.35,0
14.986,-0.36,0
14.989,-0.365,0
14.992,-0.365,0
14.994,-0.375,0
14.997,-0.375,0
15,-0.355,0
15.003,-0.355,0
15.006,-0.37,0
15.008,-0.375,0
15.011,-0.38,0
15.014,-0.385,0
15.017,-0.37,0
15.019,-0.37,0
15.022,-0.36,0
15.025,-0.37,0
15.028,-0.375,0
15.031,-0.365,0
15.033,-0.355,0
15.036,-0.345,0
15.039,-0.36,0
15.042,-0.355,0
15.044,-0.365,0
15.047,-0.36,0
15.05,-0.345,0
15.053,-0.335,0
15.056,-0.335,0
15.058,-0.355,0
15.061,-0.355,0
15.064,-0.35,0
15.067,-0.34,0
15.069,-0.35,0
15.072,-0.35,0
15.075,-0.355,0
15.078,-0.365,0
15.081,-0.36,0
15.083,-0.365,0
15.086,-0.365,0
15.089,-0.365,0
15.092,-0.37,0
15.094,-0.375,0
15.097,-0.38,0
15.1,-0.365,0
15.103,-0.35,0
15.106,-0.36,0
15.108,-0.365,0
15.111,-0.38,0
15.114,-0.375,0
15.117,-0.37,0
15.119,-0.36,0
15.122,-0.365,0
15.125,-0.375,0
15.128,-0.38,0
15.131,-0.375,0
15.133,-0.36,0
15.136,-0.355,0
15.139,-0.355,0
15.142,-0.355,0
15.144,-0.35,0
15.147,-0.35,0
15.15,-0.34,0
15.153,-0.33,0
15.156,-0.325,0
15.158,-0.335,0
15.161,-0.335,0
15.164,-0.33,0
15.167,-0.31,0
15.169,-0.3,0
15.172,-0.295,0
15.175,-0.305,0
15.178,-0.31,0
15.181,-0.285,0
15.183,-0.285,0
15.186,-0.265,0
15.189,-0.27,0
15.192,-0.285,0
15.194,-0.29,0
15.197,-0.275,0
15.2,-0.27,0
15.203,-0.255,0
15.206,-0.265,0
15.208,-0.265,0
15.211,-0.275,0
15.214,-0.27,0
15.217,-0.26,0
15.219,-0.25,0
15.222,-0.26,0
15.225,-0.27,0
15.228,-0.28,0
15.231,-0.29,0
15.233,-0.29,0
15.236,-0.28,0
15.239,-0.28,0
15.242,-0.29,0
15.244,-0.305,0
15.247,-0.3,0
15.25,-0.3,0
15.253,-0.295,0
15.256,-0.3,0
15.258,-0.29,0
15.261,-0.3,0
15.264,-0.31,0
15.267,-0.31,0
15.269,-0.295,0
15.272,-0.295,0
15.275,-0.3,0
15.278,-0.32,0
15.281,-0.315,0
15.283,-0.315,0
15.286,-0.3,0
15.289,-0.31,0
15.292,-0.305,0
15.294,-0.315,0
15.297,-0.305,0
15.3,-0.305,0
15.303,-0.305,0
15.306,-0.3,0
15.308,-0.305,0
15.311,-0.31,0
15.314,-0.315,0
15.317,-0.315,0
15.319,-0.315,0
15.322,-0.32,0
15.325,-0.335,0
15.328,-0.345,0
15.331,-0.335,0
15.333,-0.31,0
15.336,-0.325,0
15.339,-0.32,0
15.342,-0.33,0
15.344,-0.325,0
15.347,-0.325,0
15.35,-0.32,0
15.353,-0.32,0
15.356,-0.315,0
15.358,-0.325,0
15.361,-0.345,0
15.364,-0.335,0
15.367,-0.325,0
15.369,-0.325,0
15.372,-0.33,0
15.375,-0.335,0
15.378,-0.34,0
15.381,-0.335,0
15.383,-0.325,0
15.386,-0.32,0
15.389,-0.315,0
15.392,-0.335,0
15.394,-0.345,0
15.397,-0.335,0
15.4,-0.325,0
15.403,-0.325,0
15.406,-0.32,0
15.408,-0.325,0
15.411,-0.335,0
15.414,-0.32,0
15.417,-0.32,0
15.419,-0.31,0
15.422,-0.31,0
15.425,-0.32,0
15.428,-0.33,0
15.431,-0.34,0
15.433,-0.325,0
15.436,-0.305,0
15.439,-0.305,0
15.442,-0.29,0
15.444,-0.29,0
15.447,-0.27,0
15.45,-0.265,0
15.453,-0.265,0
15.456,-0.26,0
15.458,-0.26,0
15.461,-0.27,0
15.464,-0.275,0
15.467,-0.26,0
15.469,-0.245,0
15.472,-0.235,0
15.475,-0.23,0
15.478,-0.245,0
15.481,-0.24,0
15.483,-0.23,0
15.486,-0.24,0
15.489,-0.225,0
15.492,-0.24,0
15.494,-0.245,0
15.497,-0.24,0
15.5,-0.22,0
15.503,-0.22,0
15.506,-0.23,0
15.508,-0.245,0
15.511,-0.255,0
15.514,-0.24,0
15.517,-0.215,0
15.519,-0.225,0
15.522,-0.255,0
15.525,-0.285,0
15.528,-0.31,0
15.531,-0.31,0
15.533,-0.33,0
15.536,-0.335,0
15.539,-0.35,0
15.542,-0.35,0
15.544,-0.36,0
15.547,-0.355,0
15.55,-0.34,0
15.553,-0.34,0
15.556,-0.335,0
15.558,-0.35,0
15.561,-0.36,0
15.564,-0.36,0
15.567,-0.345,0
15.569,-0.345,0
15.572,-0.35,0
15.575,-0.35,0
15.578,-0.36,0
15.581,-0.35,0
15.583,-0.35,0
15.586,-0.345,0
15.589,-0.355,0
15.592,-0.355,0
15.594,-0.37,0
15.597,-0.375,0
15.6,-0.39,0
15.603,-0.425,0
15.606,-0.455,0
15.608,-0.475,0
15.611,-0.5,0
15.614,-0.54,0
15.617,-0.57,0
15.619,-0.51,0
15.622,-0.415,0
15.625,-0.335,0
15.628,-0.26,0
15.631,-0.15,0
15.633,-0.005,0
15.636,0.205,0
15.639,0.47,0
15.642,0.68,0
15.644,0.825,0
15.647,0.925,0
15.65,0.97,0
15.653,0.885,0
15.656,0.69,0
15.658,0.415,0
15.661,0.105,0
15.664,-0.15,0
15.667,-0.345,0
15.669,-0.435,0
15.672,-0.465,0
15.675,-0.455,0
15.678,-0.425,0
15.681,-0.415,0
15.683,-0.395,0
15.686,-0.375,0
15.689,-0.37,0
15.692,-0.395,0
15.694,-0.4,0
15.697,-0.4,0
15.7,-0.41,0
15.703,-0.4,0
15.706,-0.405,0
15.708,-0.4,0
15.711,-0.405,0
15.714,-0.395,0
15.717,-0.39,0
15.719,-0.38,0
15.722,-0.385,0
15.725,-0.405,0
15.728,-0.42,0
15.731,-0.405,0
15.733,-0.4,0
15.736,-0.39,0
15.739,-0.38,0
15.742,-0.395,0
15.744,-0.395,0
15.747,-0.4,0
15.75,-0.39,0
15.753,-0.41,0
15.756,-0.405,0
15.758,-0.41,0
15.761,-0.41,0
15.764,-0.395,0
15.767,-0.385,0
15.769,-0.395,0
15.772,-0.405,0
15.775,-0.42,0
15.778,-0.435,0
15.781,-0.415,0
15.783,-0.405,0
15.786,-0.41,0
15.789,-0.4,0
15.792,-0.41,0
15.794,-0.415,0
15.797,-0.41,0
15.8,-0.4,0
15.803,-0.405,0
15.806,-0.39,0
15.808,-0.39,0
15.811,-0.4,0
15.814,-0.39,0
15.817,-0.39,0
15.819,-0.39,0
15.822,-0.395,0
15.825,-0.42,0
15.828,-0.42,0
15.831,-0.415,0
15.833,-0.41,0
15.836,-0.395,0
15.839,-0.395,0
15.842,-0.4,0
15.844,-0.415,0
15.847,-0.415,0
15.85,-0.4,0
15.853,-0.4,0
15.856,-0.385,0
15.858,-0.39,0
15.861,-0.41,0
15.864,-0.395,0
15.867,-0.39,0
15.869,-0.38,0
15.872,-0.375,0
15.875,-0.39,0
15.878,-0.405,0
15.881,-0.42,0
15.883,-0.415,0
15.886,-0.415,0
15.889,-0.415,0
15.892,-0.435,0
15.894,-0.465,0
15.897,-0.455,0
15.9,-0.465,0
15.903,-0.46,0
15.906,-0.445,0
15.908,-0.455,0
15.911,-0.465,0
15.914,-0.475,0
15.917,-0.455,0
15.919,-0.46,0
15.922,-0.45,0
15.925,-0.455,0
15.928,-0.47,0
15.931,-0.455,0
15.933,-0.44,0
15.936,-0.42,0
15.939,-0.415,0
15.942,-0.42,0
15.944,-0.41,0
15.947,-0.41,0
15.95,-0.37,0
15.953,-0.36,0
15.956,-0.35,0
15.958,-0.35,0
15.961,-0.345,0
15.964,-0.335,0
15.967,-0.32,0
15.969,-0.3,0
15.972,-0.32,0
15.975,-0.315,0
15.978,-0.34,0
15.981,-0.325,0
15.983,-0.3,0
15.986,-0.3,0
15.989,-0.3,0
15.992,-0.31,0
15.994,-0.33,0
15.997,-0.31,0
16,-0.305,0
16.003,-0.3,0
16.006,-0.305,0
16.008,-0.315,0
16.011,-0.33,0
16.014,-0.31,0
16.017,-0.305,0
16.019,-0.31,0
16.022,-0.305,0
16.025,-0.31,0
16.028,-0.31,0
16.031,-0.31,0
16.033,-0.3,0
16.036,-0.305,0
16.039,-0.31,0
16.042,-0.31,0
16.044,-0.32,0
16.047,-0.315,0
16.05,-0.33,0
16.053,-0.315,0
16.056,-0.32,0
16.058,-0.34,0
16.061,-0.34,0
16.064,-0.335,0
16.067,-0.33,0
16.069,-0.32,0
16.072,-0.32,0
16.075,-0.325,0
16.078,-0.35,0
16.081,-0.34,0
16.083,-0.335,0
16.086,-0.335,0
16.089,-0.345,0
16.092,-0.35,0
16.094,-0.36,0
16.097,-0.36,0
16.1,-0.345,0
16.103,-0.335,0
16.106,-0.335,0
16.108,-0.335,0
16.111,-0.345,0
16.114,-0.335,0
16.117,-0.335,0
16.119,-0.33,0
16.122,-0.335,0
16.125,-0.335,0
16.128,-0.35,0
16.131,-0.345,0
16.133,-0.355,0
16.136,-0.345,0
16.139,-0.345,0
16.142,-0.355,0
16.144,-0.365,0
16.147,-0.36,0
16.15,-0.355,0
16.153,-0.345,0
16.156,-0.345,0
16.158,-0.345,0
16.161,-0.36,0
16.164,-0.345,0
16.167,-0.34,0
16.169,-0.335,0
16.172,-0.34,0
16.175,-0.345,0
16.178,-0.37,0
16.181,-0.37,0
16.183,-0.36,0
16.186,-0.34,0
16.189,-0.35,0
16.192,-0.365,0
16.194,-0.355,0
16.197,-0.35,0
16.2,-0.34,0
16.203,-0.34,0
16.206,-0.355,0
16.208,-0.355,0
16.211,-0.35,0
16.214,-0.35,0
16.217,-0.335,0
16.219,-0.34,0
16.222,-0.34,0
16.225,-0.33,0
16.228,-0.35,0
16.231,-0.315,0
16.233,-0.3,0
16.236,-0.29,0
16.239,-0.275,0
16.242,-0.28,0
16.244,-0.285,0
16.247,-0.275,0
16.25,-0.27,0
16.253,-0.255,0
16.256,-0.24,0
16.258,-0.25,0
16.261,-0.255,0
16.264,-0.24,0
16.267,-0.225,0
16.269,-0.225,0
16.272,-0.24,0
16.275,-0.255,0
16.278,-0.26,0
16.281,-0.275,0
16.283,-0.26,0
16.286,-0.245,0
16.289,-0.255,0
16.292,-0.265,0
16.294,-0.28,0
16.297,-0.27,0
16.3,-0.25,0
16.303,-0.235,0
16.306,-0.23,0
16.308,-0.245,0
16.311,-0.27,0
16.314,-0.28,0
16.317,-0.28,0
16.319,-0.29,0
16.322,-0.315,0
16.325,-0.335,0
16.328,-0.355,0
16.331,-0.355,0
16.333,-0.355,0
16.336,-0.36,0
16.339,-0.36,0
16.342,-0.375,0
16.344,-0.38,0
16.347,-0.36,0
16.35,-0.355,0
16.353,-0.35,0
16.356,-0.345,0
16.358,-0.37,0
16.361,-0.37,0
16.364,-0.355,0
16.367,-0.355,0
16.369,-0.35,0
16.372,-0.345,0
16.375,-0.355,0
16.378,-0.355,0
16.381,-0.36,0
16.383,-0.355,0
16.386,-0.355,0
16.389,-0.355,0
16.392,-0.36,0
16.394,-0.375,0
16.397,-0.37,0
16.4,-0.39,0
16.403,-0.425,0
16.406,-0.465,0
16.408,-0.49,0
16.411,-0.525,0
16.414,-0.56,0
16.417,-0.56,0
16.419,-0.495,0
16.422,-0.36,0
16.425,-0.22,0
16.428,-0.045,0
16.431,0.19,0
16.433,0.475,0
16.436,0.725,0
16.439,0.895,0
16.442,0.895,0
16.444,0.71,0
16.447,0.35,0
16.45,-0.055,0
16.453,-0.35,0
16.456,-0.48,0
16.458,-0.49,0
16.461,-0.465,0
16.464,-0.415,0
16.467,-0.405,0
16.469,-0.395,0
16.472,-0.405,0
16.475,-0.42,0
16.478,-0.395,0
16.481,-0.415,0
16.483,-0.4,0
16.486,-0.39,0
16.489,-0.385,0
16.492,-0.395,0
16.494,-0.405,0
16.497,-0.395,0
16.5,-0.4,0
16.503,-0.39,0
16.506,-0.39,0
16.508,-0.4,0
16.511,-0.415,0
16.514,-0.405,0
16.517,-0.39,0
16.519,-0.38,0
16.522,-0.38,0
16.525,-0.405,0
16.528,-0.39,0
16.531,-0.4,0
16.533,-0.39,0
16.536,-0.38,0
16.539,-0.38,0
16.542,-0.405,0
16.544,-0.4,0
16.547,-0.41,0
16.55,-0.4,0
16.553,-0.395,0
16.556,-0.4,0
16.558,-0.4,0
16.561,-0.405,0
16.564,-0.39,0
16.567,-0.38,0
16.569,-0.385,0
16.572,-0.385,0
16.575,-0.39,0
16.578,-0.405,0
16.581,-0.4,0
16.583,-0.4,0
16.586,-0.39,0
16.589,-0.39,0
16.592,-0.41,0
16.594,-0.41,0
16.597,-0.405,0
16.6,-0.4,0
16.603,-0.41,0
16.606,-0.405,0
16.608,-0.41,0
16.611,-0.415,0
16.614,-0.41,0
16.617,-0.405,0
16.619,-0.395,0
16.622,-0.405,0
16.625,-0.4,0
16.628,-0.4,0
16.631,-0.395,0
16.633,-0.405,0
16.636,-0.38,0
16.639,-0.385,0
16.642,-0.39,0
16.644,-0.41,0
16.647,-0.395,0
16.65,-0.39,0
16.653,-0.38,0
16.656,-0.385,0
16.658,-0.405,0
16.661,-0.405,0
16.664,-0.405,0
16.667,-0.4,0
16.669,-0.41,0
16.672,-0.41,0
16.675,-0.415,0
16.678,-0.435,0
16.681,-0.43,0
16.683,-0.415,0
16.686,-0.42,0
16.689,-0.42,0
16.692,-0.44,0
16.694,-0.44,0
16.697,-0.435,0
16.7,-0.435,0
16.703,-0.435,0
16.706,-0.43,0
16.708,-0.445,0
16.711,-0.445,0
16.714,-0.42,0
16.717,-0.425,0
16.719,-0.41,0
16.722,-0.405,0
16.725,-0.4,0
16.728,-0.41,0
16.731,-0.38,0
16.733,-0.37,0
16.736,-0.35,0
16.739,-0.34,0
16.742,-0.355,0
16.744,-0.345,0
16.747,-0.34,0
16.75,-0.315,0
16.753,-0.32,0
16.756,-0.3,0
16.758,-0.3,0
16.761,-0.315,0
16.764,-0.305,0
16.767,-0.3,0
16.769,-0.28,0
16.772,-0.29,0
16.775,-0.29,0
16.778,-0.3,0
16.781,-0.295,0
16.783,-0.295,0
16.786,-0.28,0
16.789,-0.285,0
16.792,-0.29,0
16.794,-0.295,0
16.797,-0.285,0
16.8,-0.28,0
16.803,-0.275,0
16.806,-0.265,0
16.808,-0.28,0
16.811,-0.295,0
16.814,-0.28,0
16.817,-0.28,0
16.819,-0.275,0
16.822,-0.29,0
16.825,-0.295,0
16.828,-0.31,0
16.831,-0.29,0
16.833,-0.29,0
16.836,-0.275,0
16.839,-0.27,0
16.842,-0.295,0
16.844,-0.315,0
16.847,-0.31,0
16.85,-0.3,0
16.853,-0.295,0
16.856,-0.29,0
16.858,-0.3,0
16.861,-0.315,0
16.864,-0.305,0
16.867,-0.3,0
16.869,-0.29,0
16.872,-0.31,0
16.875,-0.315,0
16.878,-0.33,0
16.881,-0.31,0
16.883,-0.305,0
16.886,-0.295,0
16.889,-0.295,0
16.892,-0.305,0
16.894,-0.325,0
16.897,-0.315,0
16.9,-0.315,0
16.903,-0.31,0
16.906,-0.3,0
16.908,-0.315,0
16.911,-0.335,0
16.914,-0.325,0
16.917,-0.325,0
16.919,-0.315,0
16.922,-0.31,0
16.925,-0.32,0
16.928,-0.335,0
16.931,-0.325,0
16.933,-0.31,0
16.936,-0.305,0
16.939,-0.305,0
16.942,-0.32,0
16.944,-0.325,0
16.947,-0.315,0
16.95,-0.31,0
16.953,-0.3,0
16.956,-0.315,0
16.958,-0.325,0
16.961,-0.32,0
16.964,-0.32,0
16.967,-0.32,0
16.969,-0.31,0
16.972,-0.31,0
16.975,-0.31,0
16.978,-0.315,0
16.981,-0.305,0
16.983,-0.285,0
16.986,-0.295,0
16.989,-0.305,0
16.992,-0.31,0
16.994,-0.315,0
16.997,-0.3,0
17,-0.315,0
17.003,-0.305,0
17.006,-0.305,0
17.008,-0.325,0
17.011,-0.325,0
17.014,-0.315,0
17.017,-0.3,0
17.019,-0.295,0
17.022,-0.31,0
17.025,-0.315,0
17.028,-0.32,0
17.031,-0.315,0
17.033,-0.31,0
17.036,-0.295,0
17.039,-0.285,0
17.042,-0.27,0
17.044,-0.25,0
17.047,-0.245,0
17.05,-0.23,0
17.053,-0.22,0
17.056,-0.225,0
17.058,-0.235,0
17.061,-0.23,0
17.064,-0.22,0
17.067,-0.205,0
17.069,-0.19,0
17.072,-0.19,0
17.075,-0.19,0
17.078,-0.205,0
17.081,-0.205,0
17.083,-0.205,0
17.086,-0.21,0
17.089,-0.215,0
17.092,-0.225,0
17.094,-0.23,0
17.097,-0.225,0
17.1,-0.22,0
17.103,-0.22,0
17.106,-0.24,0
17.108,-0.24,0
17.111,-0.23,0
17.114,-0.205,0
17.117,-0.195,0
17.119,-0.195,0
17.122,-0.22,0
17.125,-0.245,0
17.128,-0.275,0
17.131,-0.26,0
17.133,-0.275,0
17.136,-0.285,0
17.139,-0.3,0
17.142,-0.3,0
17.144,-0.31,0
17.147,-0.31,0
17.15,-0.32,0
17.153,-0.32,0
17.156,-0.325,0
17.158,-0.335,0
17.161,-0.345,0
17.164,-0.335,0
17.167,-0.335,0
17.169,-0.33,0
17.172,-0.335,0
17.175,-0.345,0
17.178,-0.36,0
17.181,-0.345,0
17.183,-0.335,0
17.186,-0.345,0
17.189,-0.345,0
17.192,-0.355,0
17.194,-0.36,0
17.197,-0.355,0
17.2,-0.34,0
17.203,-0.34,0
17.206,-0.35,0
17.208,-0.35,0
17.211,-0.355,0
17.214,-0.355,0
17.217,-0.355,0
17.219,-0.37,0
17.222,-0.425,0
17.225,-0.465,0
17.228,-0.48,0
17.231,-0.5,0
17.233,-0.53,0
17.236,-0.535,0
17.239,-0.485,0
17.242,-0.395,0
17.244,-0.255,0
17.247,-0.095,0
17.25,0.095,0
17.253,0.35,0
17.256,0.63,0
17.258,0.845,0
17.261,0.955,0
17.264,0.975,0
17.267,0.825,0
17.269,0.48,0
17.272,0.055,0
17.275,-0.27,0
17.278,-0.455,0
17.281,-0.485,0
17.283,-0.44,0
17.286,-0.405,0
17.289,-0.375,0
17.292,-0.375,0
17.294,-0.39,0
17.297,-0.38,0
17.3,-0.36,0
17.303,-0.355,0
17.306,-0.345,0
17.308,-0.365,0
17.311,-0.375,0
17.314,-0.37,0
17.317,-0.37,0
17.319,-0.355,0
17.322,-0.37,0
17.325,-0.375,0
17.328,-0.38,0
17.331,-0.385,0
17.333,-0.38,0
17.336,-0.38,0
17.339,-0.38,0
17.342,-0.385,0
17.344,-0.395,0
17.347,-0.395,0
17.35,-0.39,0
17.353,-0.385,0
17.356,-0.38,0
17.358,-0.38,0
17.361,-0.395,0
17.364,-0.39,0
17.367,-0.38,0
17.369,-0.37,0
17.372,-0.375,0
17.375,-0.385,0
17.378,-0.38,0
17.381,-0.375,0
17.383,-0.365,0
17.386,-0.36,0
17.389,-0.365,0
17.392,-0.365,0
17.394,-0.385,0
17.397,-0.37,0
17.4,-0.365,0
17.403,-0.355,0
17.406,-0.385,0
17.408,-0.395,0
17.411,-0.395,0
17.414,-0.385,0
17.417,-0.37,0
17.419,-0.38,0
17.422,-0.37,0
17.425,-0.375,0
17.428,-0.39,0
17.431,-0.385,0
17.433,-0.38,0
17.436,-0.37,0
17.439,-0.37,0
17.442,-0.385,0
17.444,-0.385,0
17.447,-0.38,0
17.45,-0.385,0
17.453,-0.37,0
17.456,-0.375,0
17.458,-0.375,0
17.461,-0.38,0
17.464,-0.38,0
17.467,-0.355,0
17.469,-0.36,0
17.472,-0.365,0
17.475,-0.37,0
17.478,-0.38,0
17.481,-0.37,0
17.483,-0.375,0
17.486,-0.36,0
17.489,-0.37,0
17.492,-0.38,0
17.494,-0.385,0
17.497,-0.375,0
17.5,-0.375,0
17.503,-0.37,0
17.506,-0.37,0
17.508,-0.385,0
17.511,-0.4,0
17.514,-0.395,0
17.517,-0.385,0
17.519,-0.395,0
17.522,-0.38,0
17.525,-0.4,0
17.528,-0.4,0
17.531,-0.4,0
17.533,-0.39,0
17.536,-0.39,0
17.539,-0.385,0
17.542,-0.4,0
17.544,-0.4,0
17.547,-0.385,0
17.55,-0.38,0
17.553,-0.38,0
17.556,-0.385,0
17.558,-0.385,0
17.561,-0.405,0
17.564,-0.395,0
17.567,-0.38,0
17.569,-0.37,0
17.572,-0.37,0
17.575,-0.38,0
17.578,-0.365,0
17.581,-0.355,0
17.583,-0.335,0
17.586,-0.325,0
17.589,-0.32,0
17.592,-0.32,0
17.594,-0.33,0
17.597,-0.315,0
17.6,-0.3,0
17.603,-0.295,0
17.606,-0.285,0
17.608,-0.295,0
17.611,-0.29,0
17.614,-0.285,0
17.617,-0.27,0
17.619,-0.26,0
17.622,-0.265,0
17.625,-0.275,0
17.628,-0.28,0
17.631,-0.275,0
17.633,-0.27,0
17.636,-0.27,0
17.639,-0.26,0
17.642,-0.27,0
17.644,-0.28,0
17.647,-0.285,0
17.65,-0.275,0
17.653,-0.265,0
17.656,-0.27,0
17.658,-0.285,0
17.661,-0.285,0
17.664,-0.285,0
17.667,-0.275,0
17.669,-0.28,0
17.672,-0.275,0
17.675,-0.285,0
17.678,-0.295,0
17.681,-0.295,0
17.683,-0.285,0
17.686,-0.28,0
17.689,-0.27,0
17.692,-0.285,0
17.694,-0.275,0
17.697,-0.29,0
17.7,-0.285,0
17.703,-0.28,0
17.706,-0.29,0
17.708,-0.3,0
17.711,-0.31,0
17.714,-0.31,0
17.717,-0.31,0
17.719,-0.3,0
17.722,-0.3,0
17.725,-0.315,0
17.728,-0.325,0
17.731,-0.315,0
17.733,-0.305,0
17.736,-0.31,0
17.739,-0.31,0
17.742,-0.315,0
17.744,-0.33,0
17.747,-0.325,0
17.75,-0.32,0
17.753,-0.32,0
17.756,-0.315,0
17.758,-0.325,0
17.761,-0.33,0
17.764,-0.335,0
17.767,-0.325,0
17.769,-0.32,0
17.772,-0.32,0
17.775,-0.315,0
17.778,-0.32,0
17.781,-0.31,0
17.783,-0.31,0
17.786,-0.3,0
17.789,-0.305,0
17.792,-0.32,0
17.794,-0.34,0
17.797,-0.335,0
17.8,-0.33,0
17.803,-0.32,0
17.806,-0.33,0
17.808,-0.33,0
17.811,-0.335,0
17.814,-0.34,0
17.817,-0.335,0
17.819,-0.325,0
17.822,-0.34,0
17.825,-0.345,0
17.828,-0.34,0
17.831,-0.34,0
17.833,-0.325,0
17.836,-0.34,0
17.839,-0.335,0
17.842,-0.34,0
17.844,-0.35,0
17.847,-0.34,0
17.85,-0.33,0
17.853,-0.33,0
17.856,-0.325,0
17.858,-0.335,0
17.861,-0.34,0
17.864,-0.335,0
17.867,-0.315,0
17.869,-0.315,0
17.872,-0.31,0
17.875,-0.32,0
17.878,-0.33,0
17.881,-0.32,0
17.883,-0.305,0
17.886,-0.31,0
17.889,-0.305,0
17.892,-0.295,0
17.894,-0.32,0
17.897,-0.305,0
17.9,-0.29,0
17.903,-0.285,0
17.906,-0.285,0
17.908,-0.285,0
17.911,-0.285,0
17.914,-0.265,0
17.917,-0.25,0
17.919,-0.25,0
17.922,-0.25,0
17.925,-0.25,0
17.928,-0.25,0
17.931,-0.25,0
17.933,-0.23,0
17.936,-0.215,0
17.939,-0.225,0
17.942,-0.225,0
17.944,-0.23,0
17.947,-0.23,0
17.95,-0.225,0
17.953,-0.215,0
17.956,-0.215,0
17.958,-0.23,0
17.961,-0.25,0
17.964,-0.24,0
17.967,-0.23,0
17.969,-0.23,0
17.972,-0.24,0
17.975,-0.25,0
17.978,-0.255,0
17.981,-0.22,0
17.983,-0.2,0
17.986,-0.2,0
17.989,-0.225,0
17.992,-0.265,0
17.994,-0.29,0
17.997,-0.29,0
18,-0.3,0
18.003,-0.31,0
18.006,-0.325,0
18.008,-0.335,0
18.011,-0.34,0
18.014,-0.35,0
18.017,-0.34,0
18.019,-0.34,0
18.022,-0.345,0
18.025,-0.33,0
18.028,-0.35,0
18.031,-0.345,0
18.033,-0.345,0
18.036,-0.34,0
18.039,-0.35,0
18.042,-0.355,0
18.044,-0.355,0
18.047,-0.355,0
18.05,-0.345,0
18.053,-0.34,0
18.056,-0.34,0
18.058,-0.355,0
18.061,-0.36,0
18.064,-0.36,0
18.067,-0.355,0
18.069,-0.345,0
18.072,-0.345,0
18.075,-0.36,0
18.078,-0.37,0
18.081,-0.375,0
18.083,-0.37,0
18.086,-0.38,0
18.089,-0.42,0
18.092,-0.465,0
18.094,-0.485,0
18.097,-0.515,0
18.1,-0.545,0
18.103,-0.575,0
18.106,-0.545,0
18.108,-0.45,0
18.111,-0.325,0
18.114,-0.195,0
18.117,-0.045,0
18.119,0.165,0
18.122,0.425,0
18.125,0.655,0
18.128,0.81,0
18.131,0.875,0
18.133,0.815,0
18.136,0.59,0
18.139,0.22,0
18.142,-0.15,0
18.144,-0.38,0
18.147,-0.47,0
18.15,-0.465,0
18.153,-0.425,0
18.156,-0.385,0
18.158,-0.375,0
18.161,-0.395,0
18.164,-0.385,0
18.167,-0.375,0
18.169,-0.355,0
18.172,-0.37,0
18.175,-0.36,0
18.178,-0.365,0
18.181,-0.37,0
18.183,-0.37,0
18.186,-0.36,0
18.189,-0.365,0
18.192,-0.375,0
18.194,-0.38,0
18.197,-0.37,0
18.2,-0.37,0
18.203,-0.37,0
18.206,-0.38,0
18.208,-0.385,0
18.211,-0.395,0
18.214,-0.39,0
18.217,-0.38,0
18.219,-0.375,0
18.222,-0.375,0
18.225,-0.395,0
18.228,-0.4,0
18.231,-0.395,0
18.233,-0.37,0
18.236,-0.37,0
18.239,-0.37,0
18.242,-0.365,0
18.244,-0.39,0
18.247,-0.385,0
18.25,-0.375,0
18.253,-0.36,0
18.256,-0.38,0
18.258,-0.39,0
18.261,-0.39,0
18.264,-0.385,0
18.267,-0.375,0
18.269,-0.375,0
18.272,-0.375,0
18.275,-0.38,0
18.278,-0.39,0
18.281,-0.38,0
18.283,-0.365,0
18.286,-0.38,0
18.289,-0.38,0
18.292,-0.385,0
18.294,-0.39,0
18.297,-0.39,0
18.3,-0.38,0
18.303,-0.38,0
18.306,-0.385,0
18.308,-0.395,0
18.311,-0.4,0
18.314,-0.385,0
18.317,-0.38,0
18.319,-0.36,0
18.322,-0.37,0
18.325,-0.375,0
18.328,-0.37,0
18.331,-0.385,0
18.333,-0.37,0
18.336,-0.365,0
18.339,-0.36,0
18.342,-0.365,0
18.344,-0.375,0
18.347,-0.38,0
18.35,-0.365,0
18.353,-0.37,0
18.356,-0.36,0
18.358,-0.37,0
18.361,-0.395,0
18.364,-0.385,0
18.367,-0.385,0
18.369,-0.39,0
18.372,-0.39,0
18.375,-0.39,0
18.378,-0.41,0
18.381,-0.39,0
18.383,-0.38,0
18.386,-0.39,0
18.389,-0.38,0
18.392,-0.395,0
18.394,-0.405,0
18.397,-0.405,0
18.4,-0.395,0
18.403,-0.39,0
18.406,-0.39,0
18.408,-0.41,0
18.411,-0.415,0
18.414,-0.39,0
18.417,-0.38,0
18.419,-0.39,0
18.422,-0.385,0
18.425,-0.39,0
18.428,-0.39,0
18.431,-0.38,0
18.433,-0.36,0
18.436,-0.355,0
18.439,-0.345,0
18.442,-0.34,0
18.444,-0.345,0
18.447,-0.33,0
18.45,-0.32,0
18.453,-0.315,0
18.456,-0.3,0
18.458,-0.305,0
18.461,-0.32,0
18.464,-0.3,0
18.467,-0.275,0
18.469,-0.275,0
18.472,-0.275,0
18.475,-0.275,0
18.478,-0.28,0
18.481,-0.285,0
18.483,-0.275,0
18.486,-0.275,0
18.489,-0.28,0
18.492,-0.295,0
18.494,-0.305,0
18.497,-0.305,0
18.5,-0.3,0
18.503,-0.29,0
18.506,-0.285,0
18.508,-0.295,0
18.511,-0.31,0
18.514,-0.3,0
18.517,-0.3,0
18.519,-0.295,0
18.522,-0.3,0
18.525,-0.305,0
18.528,-0.31,0
18.531,-0.315,0
18.533,-0.305,0
18.536,-0.31,0
18.539,-0.31,0
18.542,-0.315,0
18.544,-0.32,0
18.547,-0.305,0
18.55,-0.29,0
18.553,-0.285,0
18.556,-0.295,0
18.558,-0.3,0
18.561,-0.315,0
18.564,-0.31,0
18.567,-0.315,0
18.569,-0.32,0
18.572,-0.32,0
18.575,-0.33,0
18.578,-0.34,0
18.581,-0.32,0
18.583,-0.31,0
18.586,-0.32,0
18.589,-0.32,0
18.592,-0.33,0
18.594,-0.345,0
18.597,-0.34,0
18.6,-0.33,0
18.603,-0.33,0
18.606,-0.32,0
18.608,-0.33,0
18.611,-0.325,0
18.614,-0.325,0
18.617,-0.32,0
18.619,-0.315,0
18.622,-0.32,0
18.625,-0.33,0
18.628,-0.345,0
18.631,-0.32,0
18.633,-0.315,0
18.636,-0.315,0
18.639,-0.32,0
18.642,-0.325,0
18.644,-0.335,0
18.647,-0.34,0
18.65,-0.33,0
18.653,-0.325,0
18.656,-0.315,0
18.658,-0.335,0
18.661,-0.345,0
18.664,-0.34,0
18.667,-0.325,0
18.669,-0.32,0
18.672,-0.33,0
18.675,-0.345,0
18.678,-0.34,0
18.681,-0.33,0
18.683,-0.34,0
18.686,-0.325,0
18.689,-0.315,0
18.692,-0.31,0
18.694,-0.325,0
18.697,-0.315,0
18.7,-0.33,0
18.703,-0.315,0
18.706,-0.32,0
18.708,-0.325,0
18.711,-0.33,0
18.714,-0.33,0
18.717,-0.315,0
18.719,-0.31,0
18.722,-0.305,0
18.725,-0.31,0
18.728,-0.31,0
18.731,-0.3,0
18.733,-0.285,0
18.736,-0.275,0
18.739,-0.27,0
18.742,-0.27,0
18.744,-0.28,0
18.747,-0.265,0
18.75,-0.255,0
18.753,-0.25,0
18.756,-0.245,0
18.758,-0.25,0
18.761,-0.245,0
18.764,-0.225,0
18.767,-0.215,0
18.769,-0.22,0
18.772,-0.22,0
18.775,-0.23,0
18.778,-0.235,0
18.781,-0.24,0
18.783,-0.24,0
18.786,-0.23,0
18.789,-0.225,0
18.792,-0.24,0
18.794,-0.27,0
18.797,-0.25,0
18.8,-0.255,0
18.803,-0.235,0
18.806,-0.225,0
18.808,-0.215,0
18.811,-0.24,0
18.814,-0.26,0
18.817,-0.275,0
18.819,-0.285,0
18.822,-0.315,0
18.825,-0.32,0
18.828,-0.345,0
18.831,-0.35,0
18.833,-0.35,0
18.836,-0.36,0
18.839,-0.365,0
18.842,-0.355,0
18.844,-0.36,0
18.847,-0.36,0
18.85,-0.36,0
18.853,-0.35,0
18.856,-0.345,0
18.858,-0.355,0
18.861,-0.375,0
18.864,-0.365,0
18.867,-0.35,0
18.869,-0.345,0
18.872,-0.34,0
18.875,-0.335,0
18.878,-0.355,0
18.881,-0.365,0
18.883,-0.35,0
18.886,-0.345,0
18.889,-0.345,0
18.892,-0.355,0
18.894,-0.37,0
18.897,-0.37,0
18.9,-0.365,0
18.903,-0.36,0
18.906,-0.385,0
18.908,-0.415,0
18.911,-0.455,0
18.914,-0.465,0
18.917,-0.46,0
18.919,-0.475,0
18.922,-0.495,0
18.925,-0.555,0
18.928,-0.585,0
18.931,-0.55,0
18.933,-0.46,0
18.936,-0.345,0
18.939,-0.205,0
18.942,-0.04,0
18.944,0.19,0
18.947,0.455,0
18.95,0.68,0
18.953,0.84,0
18.956,0.88,0
18.958,0.725,0
18.961,0.4,0
18.964,0,0
18.967,-0.28,0
18.969,-0.435,0
18.972,-0.51,0
18.975,-0.485,0
18.978,-0.46,0
18.981,-0.43,0
18.983,-0.405,0
18.986,-0.41,0
18.989,-0.41,0
18.992,-0.415,0
18.994,-0.405,0
18.997,-0.415,0
19,-0.395,0
19.003,-0.39,0
19.006,-0.395,0
19.008,-0.405,0
19.011,-0.41,0
19.014,-0.41,0
19.017,-0.395,0
19.019,-0.39,0
19.022,-0.4,0
19.025,-0.4,0
19.028,-0.395,0
19.031,-0.4,0
19.033,-0.385,0
19.036,-0.385,0
19.039,-0.395,0
19.042,-0.41,0
19.044,-0.42,0
19.047,-0.41,0
19.05,-0.4,0
19.053,-0.39,0
19.056,-0.41,0
19.058,-0.415,0
19.061,-0.425,0
19.064,-0.425,0
19.067,-0.405,0
19.069,-0.4,0
19.072,-0.425,0
19.075,-0.415,0
19.078,-0.415,0
19.081,-0.41,0
19.083,-0.405,0
19.086,-0.4,0
19.089,-0.41,0
19.092,-0.405,0
19.094,-0.415,0
19.097,-0.41,0
19.1,-0.4,0
19.103,-0.395,0
19.106,-0.4,0
19.108,-0.405,0
19.111,-0.405,0
19.114,-0.415,0
19.117,-0.405,0
19.119,-0.4,0
19.122,-0.405,0
19.125,-0.41,0
19.128,-0.42,0
19.131,-0.415,0
19.133,-0.4,0
19.136,-0.395,0
19.139,-0.4,0
19.142,-0.415,0
19.144,-0.42,0
19.147,-0.41,0
19.15,-0.4,0
19.153,-0.395,0
19.156,-0.4,0
19.158,-0.415,0
19.161,-0.41,0
19.164,-0.415,0
19.167,-0.415,0
19.169,-0.405,0
19.172,-0.41,0
19.175,-0.42,0
19.178,-0.44,0
19.181,-0.43,0
19.183,-0.43,0
19.186,-0.425,0
19.189,-0.435,0
19.192,-0.435,0
19.194,-0.44,0
19.197,-0.45,0
19.2,-0.45,0
19.203,-0.45,0
19.206,-0.465,0
19.208,-0.47,0
19.211,-0.485,0
19.214,-0.465,0
19.217,-0.455,0
19.219,-0.45,0
19.222,-0.45,0
19.225,-0.47,0
19.228,-0.485,0
19.231,-0.46,0
19.233,-0.445,0
19.236,-0.435,0
19.239,-0.425,0
19.242,-0.43,0
19.244,-0.43,0
19.247,-0.415,0
19.25,-0.385,0
19.253,-0.365,0
19.256,-0.375,0
19.258,-0.36,0
19.261,-0.36,0
19.264,-0.35,0
19.267,-0.335,0
19.269,-0.335,0
19.272,-0.325,0
19.275,-0.335,0
19.278,-0.335,0
19.281,-0.335,0
19.283,-0.31,0
19.286,-0.31,0
19.289,-0.315,0
19.292,-0.315,0
19.294,-0.32,0
19.297,-0.315,0
19.3,-0.295,0
19.303,-0.295,0
19.306,-0.3,0
19.308,-0.305,0
19.311,-0.33,0
19.314,-0.325,0
19.317,-0.315,0
19.319,-0.325,0
19.322,-0.32,0
19.325,-0.33,0
19.328,-0.335,0
19.331,-0.335,0
19.333,-0.33,0
19.336,-0.305,0
19.339,-0.325,0
19.342,-0.325,0
19.344,-0.325,0
19.347,-0.325,0
19.35,-0.31,0
19.353,-0.305,0
19.356,-0.315,0
19.358,-0.325,0
19.361,-0.33,0
19.364,-0.325,0
19.367,-0.325,0
19.369,-0.34,0
19.372,-0.34,0
19.375,-0.34,0
19.378,-0.345,0
19.381,-0.34,0
19.383,-0.325,0
19.386,-0.33,0
19.389,-0.32,0
19.392,-0.325,0
19.394,-0.34,0
19.397,-0.34,0
19.4,-0.335,0
19.403,-0.34,0
19.406,-0.35,0
19.408,-0.355,0
19.411,-0.36,0
19.414,-0.35,0
19.417,-0.345,0
19.419,-0.345,0
19.422,-0.36,0
19.425,-0.355,0
19.428,-0.37,0
19.431,-0.365,0
19.433,-0.35,0
19.436,-0.36,0
19.439,-0.35,0
19.442,-0.36,0
19.444,-0.37,0
19.447,-0.36,0
19.45,-0.355,0
19.453,-0.345,0
19.456,-0.345,0
19.458,-0.35,0
19.461,-0.35,0
19.464,-0.345,0
19.467,-0.335,0
19.469,-0.33,0
19.472,-0.34,0
19.475,-0.345,0
19.478,-0.35,0
19.481,-0.345,0
19.483,-0.345,0
19.486,-0.34,0
19.489,-0.34,0
19.492,-0.345,0
19.494,-0.36,0
19.497,-0.35,0
19.5,-0.345,0
19.503,-0.335,0
19.506,-0.345,0
19.508,-0.345,0
19.511,-0.355,0
19.514,-0.345,0
19.517,-0.335,0
19.519,-0.325,0
19.522,-0.32,0
19.525,-0.305,0
19.528,-0.305,0
19.531,-0.3,0
19.533,-0.285,0
19.536,-0.28,0
19.539,-0.265,0
19.542,-0.275,0
19.544,-0.27,0
19.547,-0.245,0
19.55,-0.24,0
19.553,-0.23,0
19.556,-0.235,0
19.558,-0.23,0
19.561,-0.245,0
19.564,-0.245,0
19.567,-0.24,0
19.569,-0.25,0
19.572,-0.255,0
19.575,-0.255,0
19.578,-0.27,0
19.581,-0.265,0
19.583,-0.265,0
19.586,-0.265,0
19.589,-0.255,0
19.592,-0.25,0
19.594,-0.235,0
19.597,-0.23,0
19.6,-0.25,0
19.603,-0.26,0
19.606,-0.28,0
19.608,-0.305,0
19.611,-0.34,0
19.614,-0.33,0
19.617,-0.335,0
19.619,-0.33,0
19.622,-0.345,0
19.625,-0.35,0
19.628,-0.36,0
19.631,-0.36,0
19.633,-0.36,0
19.636,-0.365,0
19.639,-0.365,0
19.642,-0.355,0
19.644,-0.365,0
19.647,-0.36,0
19.65,-0.36,0
19.653,-0.36,0
19.656,-0.355,0
19.658,-0.375,0
19.661,-0.375,0
19.664,-0.365,0
19.667,-0.36,0
19.669,-0.37,0
19.672,-0.36,0
19.675,-0.38,0
19.678,-0.39,0
19.681,-0.385,0
19.683,-0.385,0
19.686,-0.365,0
19.689,-0.375,0
19.692,-0.375,0
19.694,-0.4,0
19.697,-0.395,0
19.7,-0.43,0
19.703,-0.46,0
19.706,-0.48,0
19.708,-0.51,0
19.711,-0.57,0
19.714,-0.585,0
19.717,-0.515,0
19.719,-0.385,0
19.722,-0.24,0
19.725,-0.085,0
19.728,0.125,0
19.731,0.405,0
19.733,0.675,0
19.736,0.865,0
19.739,0.935,0
19.742,0.84,0
19.744,0.555,0
19.747,0.14,0
19.75,-0.2,0
19.753,-0.405,0
19.756,-0.485,0
19.758,-0.485,0
19.761,-0.45,0
19.764,-0.385,0
19.767,-0.385,0
19.769,-0.385,0
19.772,-0.39,0
19.775,-0.385,0
19.778,-0.395,0
19.781,-0.39,0
19.783,-0.385,0
19.786,-0.385,0
19.789,-0.39,0
19.792,-0.395,0
19.794,-0.39,0
19.797,-0.39,0
19.8,-0.395,0
19.803,-0.38,0
19.806,-0.385,0
19.808,-0.39,0
19.811,-0.405,0
19.814,-0.4,0
19.817,-0.395,0
19.819,-0.39,0
19.822,-0.39,0
19.825,-0.39,0
19.828,-0.405,0
19.831,-0.375,0
19.833,-0.39,0
19.836,-0.38,0
19.839,-0.39,0
19.842,-0.385,0
19.844,-0.39,0
19.847,-0.385,0
19.85,-0.37,0
19.853,-0.365,0
19.856,-0.365,0
19.858,-0.38,0
19.861,-0.39,0
19.864,-0.39,0
19.867,-0.385,0
19.869,-0.375,0
19.872,-0.38,0
19.875,-0.39,0
19.878,-0.39,0
19.881,-0.395,0
19.883,-0.375,0
19.886,-0.385,0
19.889,-0.385,0
19.892,-0.4,0
19.894,-0.39,0
19.897,-0.385,0
19.9,-0.385,0
19.903,-0.375,0
19.906,-0.38,0
19.908,-0.395,0
19.911,-0.405,0
19.914,-0.385,0
19.917,-0.38,0
19.919,-0.375,0
19.922,-0.38,0
19.925,-0.38,0
19.928,-0.39,0
19.931,-0.39,0
19.933,-0.38,0
19.936,-0.355,0
19.939,-0.355,0
19.942,-0.37,0
19.944,-0.385,0
19.947,-0.375,0
19.95,-0.385,0
19.953,-0.375,0
19.956,-0.39,0
19.958,-0.39,0
19.961,-0.4,0
19.964,-0.4,0
19.967,-0.385,0
19.969,-0.39,0
19.972,-0.39,0
19.975,-0.405,0
19.978,-0.415,0
19.981,-0.405,0
19.983,-0.405,0
19.986,-0.405,0
19.989,-0.41,0
19.992,-0.425,0
19.994,-0.43,0
19.997,-0.42,0
20,-0.405,0
20.003,-0.41,0
20.006,-0.41,0
20.008,-0.41,0
20.011,-0.41,0
20.014,-0.4,0
20.017,-0.385,0
20.019,-0.37,0
20.022,-0.375,0
20.025,-0.36,0
20.028,-0.365,0
20.031,-0.355,0
20.033,-0.335,0
20.036,-0.315,0
20.039,-0.315,0
20.042,-0.31,0
20.044,-0.315,0
20.047,-0.295,0
20.05,-0.29,0
20.053,-0.27,0
20.056,-0.285,0
20.058,-0.29,0
20.061,-0.29,0
20.064,-0.28,0
20.067,-0.275,0
20.069,-0.255,0
20.072,-0.27,0
20.075,-0.275,0
20.078,-0.275,0
20.081,-0.28,0
20.083,-0.255,0
20.086,-0.245,0
20.089,-0.26,0
20.092,-0.255,0
20.094,-0.265,0
20.097,-0.26,0
20.1,-0.26,0
20.103,-0.24,0
20.106,-0.25,0
20.108,-0.26,0
20.111,-0.275,0
20.114,-0.265,0
20.117,-0.26,0
20.119,-0.26,0
20.122,-0.285,0
20.125,-0.285,0
20.128,-0.28,0
20.131,-0.285,0
20.133,-0.285,0
20.136,-0.265,0
20.139,-0.28,0
20.142,-0.275,0
20.144,-0.295,0
20.147,-0.295,0
20.15,-0.28,0
20.153,-0.275,0
20.156,-0.28,0
20.158,-0.285,0
20.161,-0.31,0
20.164,-0.305,0
20.167,-0.28,0
20.169,-0.29,0
20.172,-0.285,0
20.175,-0.29,0
20.178,-0.3,0
20.181,-0.31,0
20.183,-0.295,0
20.186,-0.295,0
20.189,-0.29,0
20.192,-0.315,0
20.194,-0.31,0
20.197,-0.31,0
20.2,-0.315,0
20.203,-0.305,0
20.206,-0.31,0
20.208,-0.32,0
20.211,-0.325,0
20.214,-0.31,0
20.217,-0.305,0
20.219,-0.31,0
20.222,-0.305,0
20.225,-0.315,0
20.228,-0.315,0
20.231,-0.305,0
20.233,-0.305,0
20.236,-0.3,0
20.239,-0.3,0
20.242,-0.315,0
20.244,-0.32,0
20.247,-0.305,0
20.25,-0.295,0
20.253,-0.3,0
20.256,-0.305,0
20.258,-0.3,0
20.261,-0.32,0
20.264,-0.31,0
20.267,-0.305,0
20.269,-0.295,0
20.272,-0.3,0
20.275,-0.31,0
20.278,-0.325,0
20.281,-0.315,0
20.283,-0.315,0
20.286,-0.3,0
20.289,-0.3,0
20.292,-0.31,0
20.294,-0.32,0
20.297,-0.315,0
20.3,-0.305,0
20.303,-0.3,0
20.306,-0.3,0
20.308,-0.3,0
20.311,-0.3,0
20.314,-0.285,0
20.317,-0.26,0
20.319,-0.245,0
20.322,-0.24,0
20.325,-0.245,0
20.328,-0.25,0
20.331,-0.24,0
20.333,-0.245,0
20.336,-0.23,0
20.339,-0.22,0
20.342,-0.23,0
20.344,-0.235,0
20.347,-0.23,0
20.35,-0.205,0
20.353,-0.2,0
20.356,-0.195,0
20.358,-0.21,0
20.361,-0.215,0
20.364,-0.205,0
20.367,-0.205,0
20.369,-0.205,0
20.372,-0.21,0
20.375,-0.225,0
20.378,-0.23,0
20.381,-0.225,0
20.383,-0.22,0
20.386,-0.22,0
20.389,-0.215,0
20.392,-0.2,0
20.394,-0.19,0
20.397,-0.19,0
20.4,-0.205,0
20.403,-0.225,0
20.406,-0.25,0
20.408,-0.27,0
20.411,-0.3,0
20.414,-0.305,0
20.417,-0.32,0
20.419,-0.32,0
20.422,-0.325,0
20.425,-0.335,0
20.428,-0.34,0
20.431,-0.335,0
20.433,-0.345,0
20.436,-0.33,0
20.439,-0.33,0
20.442,-0.345,0
20.444,-0.345,0
20.447,-0.35,0
20.45,-0.335,0
20.453,-0.335,0
20.456,-0.335,0
20.458,-0.34,0
20.461,-0.345,0
20.464,-0.34,0
20.467,-0.32,0
20.469,-0.325,0
20.472,-0.325,0
20.475,-0.335,0
20.478,-0.345,0
20.481,-0.35,0
20.483,-0.395,0
20.486,-0.43,0
20.489,-0.46,0
20.492,-0.505,0
20.494,-0.545,0
20.497,-0.575,0
20.5,-0.56,0
20.503,-0.455,0
20.506,-0.33,0
20.508,-0.235,0
20.511,-0.13,0
20.514,0,0
20.517,0.16,0
20.519,0.35,0
20.522,0.545,0
20.525,0.7,0
20.528,0.815,0
20.531,0.93,0
20.533,1.035,0
20.536,1.05,0
20.539,0.92,0
20.542,0.57,0
20.544,0.115,0
20.547,-0.245,0
20.55,-0.42,0
20.553,-0.425,0
20.556,-0.39,0
20.558,-0.355,0
20.561,-0.36,0
20.564,-0.365,0
20.567,-0.355,0
20.569,-0.35,0
20.572,-0.36,0
20.575,-0.365,0
20.578,-0.39,0
20.581,-0.385,0
20.583,-0.375,0
20.586,-0.37,0
20.589,-0.37,0
20.592,-0.38,0
20.594,-0.395,0
20.597,-0.385,0
20.6,-0.375,0
20.603,-0.365,0
20.606,-0.37,0
20.608,-0.385,0
20.611,-0.4,0
20.614,-0.385,0
20.617,-0.385,0
20.619,-0.37,0
20.622,-0.375,0
20.625,-0.385,0
20.628,-0.395,0
20.631,-0.39,0
20.633,-0.37,0
20.636,-0.36,0
20.639,-0.36,0
20.642,-0.365,0
20.644,-0.37,0
20.647,-0.37,0
20.65,-0.365,0
20.653,-0.355,0
20.656,-0.36,0
20.658,-0.37,0
20.661,-0.38,0
20.664,-0.38,0
20.667,-0.365,0
20.669,-0.37,0
20.672,-0.365,0
20.675,-0.38,0
20.678,-0.39,0
20.681,-0.38,0
20.683,-0.38,0
20.686,-0.365,0
20.689,-0.365,0
20.692,-0.375,0
20.694,-0.385,0
20.697,-0.385,0
20.7,-0.375,0
20.703,-0.36,0
20.706,-0.355,0
20.708,-0.37,0
20.711,-0.375,0
20.714,-0.37,0
20.717,-0.37,0
20.719,-0.355,0
20.722,-0.365,0
20.725,-0.36,0
20.728,-0.385,0
20.731,-0.385,0
20.733,-0.38,0
20.736,-0.36,0
20.739,-0.365,0
20.742,-0.375,0
20.744,-0.38,0
20.747,-0.37,0
20.75,-0.37,0
20.753,-0.37,0
20.756,-0.36,0
20.758,-0.385,0
20.761,-0.395,0
20.764,-0.38,0
20.767,-0.375,0
20.769,-0.365,0
20.772,-0.375,0
20.775,-0.385,0
20.778,-0.39,0
20.781,-0.375,0
20.783,-0.37,0
20.786,-0.37,0
20.789,-0.37,0
20.792,-0.37,0
20.794,-0.385,0
20.797,-0.38,0
20.8,-0.385,0
20.803,-0.37,0
20.806,-0.37,0
20.808,-0.37,0
20.811,-0.38,0
20.814,-0.37,0
20.817,-0.345,0
20.819,-0.34,0
20.822,-0.325,0
20.825,-0.335,0
20.828,-0.325,0
20.831,-0.305,0
20.833,-0.295,0
20.836,-0.295,0
20.839,-0.3,0
20.842,-0.3,0
20.844,-0.305,0
20.847,-0.295,0
20.85,-0.28,0
20.853,-0.285,0
20.856,-0.275,0
20.858,-0.265,0
20.861,-0.28,0
20.864,-0.275,0
20.867,-0.255,0
20.869,-0.265,0
20.872,-0.26,0
20.875,-0.265,0
20.878,-0.285,0
20.881,-0.285,0
20.883,-0.275,0
20.886,-0.26,0
20.889,-0.265,0
20.892,-0.285,0
20.894,-0.285,0
20.897,-0.29,0
20.9,-0.275,0
20.903,-0.275,0
20.906,-0.265,0
20.908,-0.275,0
20.911,-0.305,0
20.914,-0.29,0
20.917,-0.285,0
20.919,-0.285,0
20.922,-0.275,0
20.925,-0.295,0
20.928,-0.3,0
20.931,-0.28,0
20.933,-0.28,0
20.936,-0.27,0
20.939,-0.28,0
20.942,-0.295,0
20.944,-0.3,0
20.947,-0.31,0
20.95,-0.315,0
20.953,-0.305,0
20.956,-0.305,0
20.958,-0.335,0
20.961,-0.335,0
20.964,-0.32,0
20.967,-0.32,0
20.969,-0.31,0
20.972,-0.32,0
20.975,-0.33,0
20.978,-0.33,0
20.981,-0.33,0
20.983,-0.33,0
20.986,-0.31,0
20.989,-0.315,0
20.992,-0.32,0
20.994,-0.335,0
20.997,-0.33,0
21,-0.315,0
21.003,-0.31,0
21.006,-0.315,0
21.008,-0.33,0
21.011,-0.34,0
21.014,-0.335,0
21.017,-0.34,0
21.019,-0.305,0
21.022,-0.32,0
21.025,-0.33,0
21.028,-0.34,0
21.031,-0.335,0
21.033,-0.32,0
21.036,-0.32,0
21.039,-0.33,0
21.042,-0.33,0
21.044,-0.335,0
21.047,-0.325,0
21.05,-0.315,0
21.053,-0.32,0
21.056,-0.315,0
21.058,-0.32,0
21.061,-0.31,0
21.064,-0.31,0
21.067,-0.31,0
21.069,-0.305,0
21.072,-0.3,0
21.075,-0.31,0
21.078,-0.31,0
21.081,-0.3,0
21.083,-0.285,0
21.086,-0.29,0
21.089,-0.275,0
21.092,-0.275,0
21.094,-0.275,0
21.097,-0.27,0
21.1,-0.255,0
21.103,-0.24,0
21.106,-0.245,0
21.108,-0.24,0
21.111,-0.245,0
21.114,-0.245,0
21.117,-0.22,0
21.119,-0.205,0
21.122,-0.19,0
21.125,-0.195,0
21.128,-0.19,0
21.131,-0.2,0
21.133,-0.195,0
21.136,-0.2,0
21.139,-0.21,0
21.142,-0.215,0
21.144,-0.22,0
21.147,-0.21,0
21.15,-0.21,0
21.153,-0.2,0
21.156,-0.21,0
21.158,-0.22,0
21.161,-0.215,0
21.164,-0.22,0
21.167,-0.235,0
21.169,-0.225,0
21.172,-0.225,0
21.175,-0.22,0
21.178,-0.2,0
21.181,-0.205,0
21.183,-0.23,0
21.186,-0.25,0
21.189,-0.26,0
21.192,-0.285,0
21.194,-0.3,0
21.197,-0.315,0
21.2,-0.33,0
21.203,-0.325,0
21.206,-0.335,0
21.208,-0.34,0
21.211,-0.345,0
21.214,-0.33,0
21.217,-0.32,0
21.219,-0.32,0
21.222,-0.325,0
21.225,-0.335,0
21.228,-0.335,0
21.231,-0.335,0
21.233,-0.33,0
21.236,-0.33,0
21.239,-0.335,0
21.242,-0.35,0
21.244,-0.355,0
21.247,-0.35,0
21.25,-0.345,0
21.253,-0.34,0
21.256,-0.35,0
21.258,-0.36,0
21.261,-0.39,0
21.264,-0.4,0
21.267,-0.435,0
21.269,-0.465,0
21.272,-0.48,0
21.275,-0.515,0
21.278,-0.57,0
21.281,-0.58,0
21.283,-0.52,0
21.286,-0.4,0
21.289,-0.25,0
21.292,-0.095,0
21.294,0.1,0
21.297,0.395,0
21.3,0.66,0
21.303,0.83,0
21.306,0.88,0
21.308,0.76,0
21.311,0.46,0
21.314,0.07,0
21.317,-0.24,0
21.319,-0.425,0
21.322,-0.485,0
21.325,-0.48,0
21.328,-0.43,0
21.331,-0.4,0
21.333,-0.395,0
21.336,-0.4,0
21.339,-0.4,0
21.342,-0.395,0
21.344,-0.39,0
21.347,-0.375,0
21.35,-0.365,0
21.353,-0.37,0
21.356,-0.385,0
21.358,-0.395,0
21.361,-0.405,0
21.364,-0.39,0
21.367,-0.39,0
21.369,-0.385,0
21.372,-0.38,0
21.375,-0.395,0
21.378,-0.4,0
21.381,-0.38,0
21.383,-0.38,0
21.386,-0.375,0
21.389,-0.385,0
21.392,-0.395,0
21.394,-0.405,0
21.397,-0.4,0
21.4,-0.395,0
21.403,-0.395,0
21.406,-0.38,0
21.408,-0.395,0
21.411,-0.39,0
21.414,-0.395,0
21.417,-0.4,0
21.419,-0.39,0
21.422,-0.385,0
21.425,-0.39,0
21.428,-0.4,0
21.431,-0.39,0
21.433,-0.38,0
21.436,-0.38,0
21.439,-0.385,0
21.442,-0.38,0
21.444,-0.385,0
21.447,-0.37,0
21.45,-0.375,0
21.453,-0.37,0
21.456,-0.37,0
21.458,-0.375,0
21.461,-0.385,0
21.464,-0.385,0
21.467,-0.375,0
21.469,-0.385,0
21.472,-0.38,0
21.475,-0.4,0
21.478,-0.405,0
21.481,-0.4,0
21.483,-0.385,0
21.486,-0.38,0
21.489,-0.375,0
21.492,-0.395,0
21.494,-0.405,0
21.497,-0.405,0
21.5,-0.395,0
21.503,-0.39,0
21.506,-0.38,0
21.508,-0.385,0
21.511,-0.395,0
21.514,-0.375,0
21.517,-0.375,0
21.519,-0.38,0
21.522,-0.385,0
21.525,-0.375,0
21.528,-0.385,0
21.531,-0.385,0
21.533,-0.375,0
21.536,-0.38,0
21.539,-0.4,0
21.542,-0.405,0
21.544,-0.415,0
21.547,-0.41,0
21.55,-0.415,0
21.553,-0.4,0
21.556,-0.41,0
21.558,-0.41,0
21.561,-0.415,0
21.564,-0.415,0
21.567,-0.415,0
21.569,-0.415,0
21.572,-0.415,0
21.575,-0.425,0
21.578,-0.445,0
21.581,-0.43,0
21.583,-0.42,0
21.586,-0.415,0
21.589,-0.4,0
21.592,-0.41,0
21.594,-0.405,0
21.597,-0.385,0
21.6,-0.375,0
21.603,-0.35,0
21.606,-0.35,0
21.608,-0.35,0
21.611,-0.355,0
21.614,-0.335,0
21.617,-0.33,0
21.619,-0.305,0
21.622,-0.31,0
21.625,-0.325,0
21.628,-0.325,0
21.631,-0.315,0
21.633,-0.315,0
21.636,-0.31,0
21.639,-0.31,0
21.642,-0.305,0
21.644,-0.315,0
21.647,-0.32,0
21.65,-0.31,0
21.653,-0.305,0
21.656,-0.305,0
21.658,-0.305,0
21.661,-0.31,0
21.664,-0.295,0
21.667,-0.295,0
21.669,-0.29,0
21.672,-0.285,0
21.675,-0.285,0
21.678,-0.305,0
21.681,-0.305,0
21.683,-0.295,0
21.686,-0.29,0
21.689,-0.295,0
21.692,-0.295,0
21.694,-0.305,0
21.697,-0.305,0
21.7,-0.3,0
21.703,-0.3,0
21.706,-0.3,0
21.708,-0.32,0
21.711,-0.32,0
21.714,-0.325,0
21.717,-0.32,0
21.719,-0.32,0
21.722,-0.305,0
21.725,-0.325,0
21.728,-0.32,0
21.731,-0.315,0
21.733,-0.32,0
21.736,-0.31,0
21.739,-0.315,0
21.742,-0.31,0
21.744,-0.315,0
21.747,-0.315,0
21.75,-0.315,0
21.753,-0.305,0
21.756,-0.31,0
21.758,-0.315,0
21.761,-0.325,0
21.764,-0.33,0
21.767,-0.33,0
21.769,-0.325,0
21.772,-0.325,0
21.775,-0.33,0
21.778,-0.35,0
21.781,-0.35,0
21.783,-0.33,0
21.786,-0.325,0
21.789,-0.33,0
21.792,-0.35,0
21.794,-0.36,0
21.797,-0.35,0
21.8,-0.34,0
21.803,-0.33,0
21.806,-0.33,0
21.808,-0.33,0
21.811,-0.35,0
21.814,-0.35,0
21.817,-0.34,0
21.819,-0.325,0
21.822,-0.32,0
21.825,-0.33,0
21.828,-0.335,0
21.831,-0.35,0
21.833,-0.34,0
21.836,-0.345,0
21.839,-0.34,0
21.842,-0.33,0
21.844,-0.335,0
21.847,-0.34,0
21.85,-0.32,0
21.853,-0.325,0
21.856,-0.33,0
21.858,-0.35,0
21.861,-0.35,0
21.864,-0.335,0
21.867,-0.32,0
21.869,-0.31,0
21.872,-0.305,0
21.875,-0.295,0
21.878,-0.295,0
21.881,-0.275,0
21.883,-0.27,0
21.886,-0.255,0
21.889,-0.265,0
21.892,-0.25,0
21.894,-0.25,0
21.897,-0.25,0
21.9,-0.225,0
21.903,-0.22,0
21.906,-0.22,0
21.908,-0.23,0
21.911,-0.25,0
21.914,-0.25,0
21.917,-0.25,0
21.919,-0.235,0
21.922,-0.23,0
21.925,-0.245,0
21.928,-0.24,0
21.931,-0.235,0
21.933,-0.235,0
21.936,-0.23,0
21.939,-0.255,0
21.942,-0.26,0
21.944,-0.275,0
21.947,-0.265,0
21.95,-0.255,0
21.953,-0.23,0
21.956,-0.225,0
21.958,-0.24,0
21.961,-0.27,0
21.964,-0.285,0
21.967,-0.295,0
21.969,-0.305,0
21.972,-0.32,0
21.975,-0.355,0
21.978,-0.365,0
21.981,-0.36,0
21.983,-0.365,0
21.986,-0.355,0
21.989,-0.355,0
21.992,-0.36,0
21.994,-0.365,0
21.997,-0.365,0
22,-0.355,0
22.003,-0.345,0
22.006,-0.355,0
22.008,-0.37,0
22.011,-0.385,0
22.014,-0.37,0
22.017,-0.35,0
22.019,-0.35,0
22.022,-0.345,0
22.025,-0.36,0
22.028,-0.37,0
22.031,-0.37,0
22.033,-0.36,0
22.036,-0.345,0
22.039,-0.36,0
22.042,-0.365,0
22.044,-0.385,0
22.047,-0.39,0
22.05,-0.405,0
22.053,-0.43,0
22.056,-0.45,0
22.058,-0.47,0
22.061,-0.515,0
22.064,-0.55,0
22.067,-0.565,0
22.069,-0.505,0
22.072,-0.42,0
22.075,-0.295,0
22.078,-0.13,0
22.081,0.08,0
22.083,0.36,0
22.086,0.62,0
22.089,0.835,0
22.092,0.92,0
22.094,0.83,0
22.097,0.545,0
22.1,0.16,0
22.103,-0.18,0
22.106,-0.395,0
22.108,-0.49,0
22.111,-0.515,0
22.114,-0.47,0
22.117,-0.425,0
22.119,-0.41,0
22.122,-0.41,0
22.125,-0.415,0
22.128,-0.41,0
22.131,-0.405,0
22.133,-0.395,0
22.136,-0.395,0
22.139,-0.395,0
22.142,-0.405,0
22.144,-0.41,0
22.147,-0.4,0
22.15,-0.405,0
22.153,-0.395,0
22.156,-0.4,0
22.158,-0.41,0
22.161,-0.42,0
22.164,-0.415,0
22.167,-0.415,0
22.169,-0.405,0
22.172,-0.41,0
22.175,-0.43,0
22.178,-0.445,0
22.181,-0.445,0
22.183,-0.425,0
22.186,-0.415,0
22.189,-0.42,0
22.192,-0.42,0
22.194,-0.425,0
22.197,-0.42,0
22.2,-0.425,0
22.203,-0.41,0
22.206,-0.415,0
22.208,-0.435,0
22.211,-0.44,0
22.214,-0.435,0
22.217,-0.415,0
22.219,-0.415,0
22.222,-0.41,0
22.225,-0.41,0
22.228,-0.42,0
22.231,-0.43,0
22.233,-0.435,0
22.236,-0.425,0
22.239,-0.42,0
22.242,-0.42,0
22.244,-0.425,0
22.247,-0.425,0
22.25,-0.425,0
22.253,-0.42,0
22.256,-0.425,0
22.258,-0.425,0
22.261,-0.425,0
22.264,-0.42,0
22.267,-0.415,0
22.269,-0.415,0
22.272,-0.415,0
22.275,-0.42,0
22.278,-0.43,0
22.281,-0.425,0
22.283,-0.42,0
22.286,-0.415,0
22.289,-0.42,0
22.292,-0.42,0
22.294,-0.43,0
22.297,-0.42,0
22.3,-0.42,0
22.303,-0.41,0
22.306,-0.405,0
22.308,-0.425,0
22.311,-0.435,0
22.314,-0.44,0
22.317,-0.42,0
22.319,-0.415,0
22.322,-0.43,0
22.325,-0.44,0
22.328,-0.45,0
22.331,-0.45,0
22.333,-0.445,0
22.336,-0.445,0
22.339,-0.445,0
22.342,-0.465,0
22.344,-0.475,0
22.347,-0.49,0
22.35,-0.48,0
22.353,-0.475,0
22.356,-0.48,0
22.358,-0.485,0
22.361,-0.49,0
22.364,-0.485,0
22.367,-0.475,0
22.369,-0.455,0
22.372,-0.465,0
22.375,-0.46,0
22.378,-0.47,0
22.381,-0.455,0
22.383,-0.45,0
22.386,-0.435,0
22.389,-0.43,0
22.392,-0.43,0
22.394,-0.42,0
